time,potential
0.1288888888888889,1.9127428501962886e-34
0.13308390022675737,1.3293211290661174e-30
0.13707482993197279,6.594328929626739e-29
0.1407936507936508,3.9445333022136036e-24
0.14487528344671202,7.239395118732305e-22
0.14900226757369614,1.972638144178576e-20
0.15324263038548752,2.552064255456245e-19
0.15750566893424037,2.508588510852796e-18
0.16167800453514738,1.9284600336670833e-17
0.16582766439909297,1.153854310289171e-16
0.17002267573696145,5.519918976413752e-16
0.17426303854875283,2.1743678258230157e-15
0.1785034013605442,7.273496179034641e-15
0.18276643990929706,2.1232888740321687e-14
0.18705215419501134,5.537454150399332e-14
0.19136054421768708,1.3146029759591754e-13
0.19566893424036283,2.883648776682116e-13
0.19997732426303855,5.916025243578119e-13
0.2042857142857143,1.1459839643672617e-12
0.20861678004535147,2.113320330864318e-12
0.21294784580498866,3.732902148638438e-12
0.21727891156462587,6.349889459659016e-12
0.22160997732426305,1.044840313032601e-11
0.22594104308390023,1.6691531050672423e-11
0.2302721088435374,2.5968247948580633e-11
0.23462585034013606,3.9456725572529224e-11
0.23895691609977324,5.867353008039404e-11
0.24328798185941045,8.554441953922442e-11
0.24764172335600906,1.225288192793519e-10
0.25197278911564625,1.726167685240794e-10
0.2563265306122449,2.395232511325652e-10
0.26065759637188207,3.2773092845574315e-10
0.26501133786848075,4.426025440394171e-10
0.2693424036281179,5.905753746806517e-10
0.27369614512471657,7.791525803871277e-10
0.2780272108843537,1.0172418147375941e-09
0.2823809523809524,1.3151179410634788e-09
0.28671201814058955,1.6847147940684726e-09
0.2910657596371882,2.1399239364209334e-09
0.2953968253968254,2.6962717515720013e-09
0.29975056689342405,3.3724318289965093e-09
0.3040816326530612,4.188040032204112e-09
0.3084353741496599,5.168179198704983e-09
0.3127891156462585,6.337382078547548e-09
0.3171201814058957,7.728117782334427e-09
0.3214739229024943,9.371999269835632e-09
0.32580498866213153,1.1308961000028698e-08
0.33015873015873015,1.3580897228355251e-08
0.33448979591836736,1.623511035826527e-08
0.338843537414966,1.9327551461047668e-08
0.3431746031746032,2.291195771734664e-08
0.3475283446712018,2.706364314847373e-08
0.3518820861678005,3.184444978004122e-08
0.35621315192743763,3.7343715354165167e-08
0.3605668934240363,4.364341772622151e-08
0.36489795918367346,5.083996470537822e-08
0.36925170068027213,5.9045878602406165e-08
0.37360544217687075,6.835816221887189e-08
0.37793650793650796,7.892819562434336e-08
0.3822902494331066,9.086183202728037e-08
0.3866213151927438,1.0431777643687706e-07
0.3909750566893424,1.1945169205969938e-07
0.3953061224489796,1.364027877358501e-07
0.39965986394557823,1.554015062800049e-07
0.4040136054421769,1.7657551915305473e-07
0.40834467120181406,2.0015528048787061e-07
0.41269841269841273,2.2635057400632972e-07
0.41705215419501135,2.553316858525604e-07
0.42138321995464856,2.874312532021651e-07
0.4257369614512472,3.2278621376226313e-07
0.4300680272108844,3.6168988952915225e-07
0.434421768707483,4.044330915192803e-07
0.4387755102040816,4.511867031413742e-07
0.44310657596371883,5.023852419077902e-07
0.44746031746031745,5.581835983177344e-07
0.45179138321995466,6.188978342959167e-07
0.4561451247165533,6.849438105311276e-07
0.46049886621315195,7.564339084602267e-07
0.4648299319727891,8.339123786070441e-07
0.4691836734693878,9.175453817642486e-07
0.47351473922902493,1.007635053103424e-06
0.4778684807256236,1.1047511195064027e-06
0.4822222222222222,1.2088766872352996e-06
0.48655328798185943,1.3207182998435158e-06
0.49090702947845805,1.440369474552966e-06
0.49523809523809526,1.5681672918684272e-06
0.4995918367346939,1.7047600587370408e-06
0.5039455782312925,1.8499641342887546e-06
0.5082766439909298,2.0048193608034503e-06
0.5126303854875284,2.169055610490333e-06
0.5169614512471655,2.3433268120988377e-06
0.5213151927437641,2.5280265717030663e-06
0.5256462585034014,2.7230541512345257e-06
0.53,2.929643011214919e-06
0.5343537414965986,3.1470028396696273e-06
0.5386848072562358,3.376639814970497e-06
0.5430385487528345,3.6178997892944897e-06
0.5473696145124717,3.8717050500385045e-06
0.5517233560090703,4.138230480258904e-06
0.5560544217687075,4.417463001418264e-06
0.5604081632653062,4.7105840080473795e-06
0.5647392290249433,5.016454864057427e-06
0.569092970521542,5.3374562337390296e-06
0.5734467120181406,5.671529006232401e-06
0.5777777777777778,6.021225137428388e-06
0.5821315192743765,6.384833428901294e-06
0.5864625850340136,6.764120948107373e-06
0.5908163265306122,7.158366688012408e-06
0.5951473922902495,7.5681900247593685e-06
0.5995011337868481,7.994077261539406e-06
0.6038321995464853,8.435251755067749e-06
0.6081859410430839,8.893665002192965e-06
0.6125170068027211,9.366848147374447e-06
0.6168707482993198,9.858527452000577e-06
0.6212244897959184,1.0364577150792472e-05
0.6255555555555555,1.088969920913861e-05
0.6299092970521543,1.1429568692591867e-05
0.6342403628117914,1.198778528875165e-05
0.63859410430839,1.2561719565031919e-05
0.6429251700680272,1.3152889942249178e-05
0.6472789115646259,1.3760883129201121e-05
0.6516099773242631,1.4384542869893886e-05
0.6559637188208617,1.502630427737812e-05
0.6602947845804988,1.5681625169946293e-05
0.6646485260770976,1.635654582071532e-05
0.6690022675736962,1.704376043998798e-05
0.6733333333333333,1.7749418544647778e-05
0.677687074829932,1.8467970695046825e-05
0.6820181405895692,1.9201917944686766e-05
0.6863718820861678,1.9950274032471116e-05
0.690702947845805,2.0710170726751617e-05
0.6950566893424036,2.1486384837168335e-05
0.6994104308390022,2.2270669349959972e-05
0.7037414965986395,2.3071092341422838e-05
0.7080952380952381,2.387927622320086e-05
0.7124263038548753,2.4698242977493736e-05
0.7167800453514739,2.5527303586871843e-05
0.7211111111111111,2.6360741705769307e-05
0.7254648526077098,2.7207223875381333e-05
0.7298185941043084,2.8054968049830515e-05
0.7341496598639456,2.891060377678926e-05
0.7385034013605443,2.9769589735660946e-05
0.7428344671201814,3.062815740678622e-05
0.74718820861678,3.1493934696172266e-05
0.7515419501133787,3.235453525550883e-05
0.7558730158730159,3.32175958853466e-05
0.7602267573696145,3.407747214980324e-05
0.7645578231292517,3.4929531201493014e-05
0.7689115646258503,3.5783465874986706e-05
0.773265306122449,3.662485866742299e-05
0.7775963718820862,3.7460749951262485e-05
0.7819501133786848,3.828779054311574e-05
0.7863038548752834,3.9097475569705905e-05
0.7906349206349207,3.990431524314835e-05
0.7949886621315193,4.069098657513332e-05
0.7993197278911565,4.1462178888976444e-05
0.8036734693877551,4.222017614738119e-05
0.8080272108843538,4.295295156939723e-05
0.812358276643991,4.367297335907202e-05
0.8167120181405896,4.436855190591908e-05
0.8210430839002267,4.5037675698045573e-05
0.8253968253968255,4.569073625982125e-05
0.8297505668934241,4.6311160337073457e-05
0.8340816326530612,4.690863158192782e-05
0.8384353741496599,4.747890088241599e-05
0.8427891156462585,4.8012464488705244e-05
0.8471201814058957,4.852780361708958e-05
0.8514739229024944,4.9004460963990354e-05
0.8558049886621315,4.944924514535532e-05
0.8601587301587301,4.98652333617152e-05
0.8645124716553289,5.023912244254849e-05
0.868843537414966,5.058791624487678e-05
0.8731972789115646,5.089637193777216e-05
0.8775283446712018,5.116702236836002e-05
0.8818820861678005,5.140778531088769e-05
0.8862358276643991,5.16029879874718e-05
0.8905668934240363,5.1770034999168366e-05
0.8949206349206349,5.18952569368125e-05
0.8992517006802722,5.198137612240323e-05
0.9036054421768708,5.203610957206109e-05
0.9079591836734694,5.2044081697847176e-05
0.9122902494331065,5.202615474671961e-05
0.9166439909297053,5.1964077092838135e-05
0.9209750566893424,5.186763367079743e-05
0.925328798185941,5.173682270911327e-05
0.9296598639455782,5.15643926933048e-05
0.9340136054421769,5.136687258987761e-05
0.9383673469387755,5.112487424269133e-05
0.9426984126984127,5.0860301813218465e-05
0.9470521541950113,5.055573663343079e-05
0.9513832199546486,5.0224617682301654e-05
0.9557369614512472,4.9861124722566634e-05
0.9600680272108844,4.946864921073765e-05
0.964421768707483,4.905042391644403e-05
0.9687528344671202,4.860241752949718e-05
0.9731065759637189,4.813414810501844e-05
0.977437641723356,4.76369901139464e-05
0.9817913832199546,4.7123787336004643e-05
0.9861224489795919,4.658432184136994e-05
0.9904761904761905,4.6031643692692166e-05
0.9948072562358277,4.545708585524208e-05
0.9991609977324263,4.487065830634598e-05
1.0034920634920634,4.426849707355938e-05
1.007845804988662,4.365423226357207e-05
1.0121768707482994,4.303213098203633e-05
1.016530612244898,4.2396043958046904e-05
1.0208616780045352,4.176174013104893e-05
1.0251927437641724,4.111522970018579e-05
1.029546485260771,4.0471070528397134e-05
1.0338775510204081,3.9824651065769904e-05
1.0382312925170067,3.917367991393702e-05
1.0425623582766441,3.853483120694323e-05
1.0468934240362813,3.789555341448764e-05
1.05124716553288,3.725868616432088e-05
1.055578231292517,3.6638379683164436e-05
1.0599092970521542,3.6024364322913146e-05
1.0642403628117914,3.5419071601935306e-05
1.06859410430839,3.4829095806270064e-05
1.0729251700680271,3.4256759301574393e-05
1.0772562358276645,3.369887997738876e-05
1.0815873015873017,3.315745795175394e-05
1.0859183673469388,3.263435490011158e-05
1.0902721088435374,3.2135531103219905e-05
1.0946031746031746,3.1659199313414544e-05
1.0989342403628117,3.1205192554093306e-05
1.103265306122449,3.077480123068487e-05
1.1075963718820863,3.0369146152320718e-05
1.1119274376417234,2.9989174066929257e-05
1.1162585034013606,2.963565410143568e-05
1.1205895691609977,2.9309175128432132e-05
1.1249206349206349,2.9010144075842865e-05
1.1292743764172335,2.873908407768342e-05
1.1336054421768709,2.8496976978321553e-05
1.137936507936508,2.8282295186836906e-05
1.1422675736961452,2.8094780933641855e-05
1.1465986394557823,2.7933999031742225e-05
1.1509297052154195,2.7799340514152414e-05
1.1552607709750566,2.7690027189285834e-05
1.1595918367346938,2.7605117088999037e-05
1.1639229024943312,2.7543510778470535e-05
1.1682539682539683,2.7503958491890943e-05
1.1725850340136055,2.7485068052869812e-05
1.1769160997732426,2.748531353374256e-05
1.1812471655328798,2.7503044603468367e-05
1.185578231292517,2.753649650960527e-05
1.1899092970521543,2.7583800635944742e-05
1.194263038548753,2.764557297142401e-05
1.19859410430839,2.7719137059126815e-05
1.2029251700680272,2.7800897289505475e-05
1.2072562358276644,2.78886949703787e-05
1.2115873015873015,2.79803216972461e-05
1.2159183673469387,2.807353190920645e-05
1.2202721088435375,2.817239205017048e-05
1.2246031746031747,2.8269194266192373e-05
1.2289342403628118,2.8361200540017892e-05
1.233265306122449,2.8446126245162018e-05
1.2376190476190476,2.8528908117353883e-05
1.2419501133786848,2.8601787992007165e-05
1.246281179138322,2.866127841189179e-05
1.2506349206349208,2.870915738961767e-05
1.254965986394558,2.8745300775615538e-05
1.259297052154195,2.876204696959181e-05
1.2636507936507937,2.8760704828472095e-05
1.2679818594104308,2.874338359096487e-05
1.272312925170068,2.8701155905559603e-05
1.2766666666666666,2.8636918201303346e-05
1.2809977324263038,2.8550801964355112e-05
1.2853287981859411,2.843493920884014e-05
1.2896825396825398,2.829515471443515e-05
1.294013605442177,2.8126752613473216e-05
1.298344671201814,2.7924570931349336e-05
1.3026984126984127,2.7697941053835605e-05
1.3070294784580498,2.7435954090597736e-05
1.3113832199546485,2.7139770942114024e-05
1.3157142857142858,2.6813910993401753e-05
1.320045351473923,2.6449485886646636e-05
1.3243990929705216,2.605149067642528e-05
1.3287301587301588,2.5618479865353133e-05
1.333061224489796,2.514536196495062e-05
1.3374149659863945,2.4639009339898713e-05
1.3417460317460317,2.4094252987273454e-05
1.346077097505669,2.3508842031238344e-05
1.3504308390022677,2.2889626608438575e-05
1.3547619047619048,2.2231181073875198e-05
1.359092970521542,2.1532498676786164e-05
1.3634467120181406,2.07979968301403e-05
1.3677777777777778,2.0026488234518394e-05
1.372108843537415,1.9216069658783672e-05
1.3764399092970523,1.8367679351745813e-05
1.380793650793651,1.7484406732144506e-05
1.385124716553288,1.656613166043537e-05
1.3894557823129252,1.561233206502851e-05
1.3937868480725624,1.462433509657578e-05
1.3981179138321995,1.360356181836113e-05
1.4024489795918367,1.255152049933425e-05
1.406780045351474,1.1469799764522506e-05
1.4110884353741497,1.0361560137086121e-05
1.415419501133787,9.230703275229002e-06
1.4197278911564626,8.080833997428122e-06
1.4240362811791383,6.9197863883053126e-06
1.4283219954648527,5.761376282145479e-06
1.4325850340136055,4.630053195247192e-06
1.4368027210884353,3.578563778342065e-06
1.4409297052154195,2.7253283932447527e-06
1.4449659863945579,2.2979477310269933e-06
1.4489569160997733,2.513321426362668e-06
1.453061224489796,3.2846320560314733e-06
1.457233560090703,4.370217006634754e-06
1.4614739229024944,5.6137545197556375e-06
1.4657596371882087,6.9449035855159294e-06
1.470045351473923,8.328060930167091e-06
1.4743537414965986,9.748652169006403e-06
1.478684807256236,1.1196848240674053e-05
1.4829931972789117,1.2663883818998218e-05
1.4873242630385488,1.4147797571681005e-05
1.491655328798186,1.5642901177498487e-05
1.4959863945578231,1.7147004649526227e-05
1.5003174603174603,1.865791075434686e-05
1.5046485260770974,2.0173419820922284e-05
1.5089795918367348,2.1691334355935306e-05
1.513310657596372,2.3209463460403248e-05
1.517641723356009,2.4725627044423266e-05
1.5219727891156463,2.6237659838971927e-05
1.5263038548752834,2.7743415205574317e-05
1.5306349206349206,2.9240768746351086e-05
1.5349886621315194,3.0728568455884335e-05
1.5393197278911566,3.2208921982008095e-05
1.5436507936507937,3.3675458185949026e-05
1.5479818594104309,3.5126143188752646e-05
1.552312925170068,3.655897836732251e-05
1.5566439909297052,3.79720029635096e-05
1.5609977324263038,3.936939179601918e-05
1.5653287981859412,4.074591627586958e-05
1.5696598639455783,4.209760096687755e-05
1.5739909297052155,4.342261877602818e-05
1.5783219954648526,4.471918964606044e-05
1.5826757369614513,4.5991828068036464e-05
1.5870068027210884,4.723645217147129e-05
1.5913378684807256,4.844800506601752e-05
1.595668934240363,4.962486558330939e-05
1.6,5.076546704239391e-05
1.6043537414965987,5.1872642723847025e-05
1.6086848072562359,5.294677194475023e-05
1.613015873015873,5.398048945522658e-05
1.6173469387755102,5.497241001343991e-05
1.6216780045351473,5.5921210237286864e-05
1.6260090702947847,5.682563050881052e-05
1.6303628117913833,5.769157975132547e-05
1.6346938775510205,5.851375073326883e-05
1.6390249433106576,5.92880774048958e-05
1.6433560090702948,6.001351573665276e-05
1.647687074829932,6.068909527316219e-05
1.652018140589569,6.131392176629455e-05
1.6563492063492065,6.188717996911979e-05
1.660702947845805,6.241396497955044e-05
1.6650340136054422,6.28895639232734e-05
1.6693650793650794,6.331117870957596e-05
1.6736961451247165,6.367827502949932e-05
1.6780272108843537,6.399041334733797e-05
1.682358276643991,6.424725279127525e-05
1.6866893424036282,6.444855518908319e-05
1.6910204081632654,6.459418922768268e-05
1.6953514739229025,6.468413471011739e-05
1.6996825396825397,6.47184868781997e-05
1.7040136054421768,6.469746076396066e-05
1.708344671201814,6.46213955280831e-05
1.7126757369614514,6.449075873880947e-05
1.7170068027210885,6.430615054054848e-05
1.7213378684807257,6.406830765759113e-05
1.7256689342403628,6.377810717504337e-05
1.73,6.343657003645431e-05
1.7343310657596371,6.304486419568706e-05
1.7386621315192745,6.260430735942076e-05
1.7429931972789117,6.211636925615449e-05
1.7473015873015874,6.159277602153173e-05
1.7516326530612245,6.102986984430982e-05
1.7559637188208617,6.042670183942521e-05
1.7602947845804988,5.978541010012022e-05
1.7646031746031747,5.9124174710717476e-05
1.7689342403628119,5.843658232900784e-05
1.7732426303854876,5.772117977100964e-05
1.7775736961451247,5.7006410578287144e-05
1.7819047619047619,5.627051730435384e-05
1.7862131519274376,5.554651285380089e-05
1.7905215419501135,5.48174075235999e-05
1.7948526077097506,5.4111262829488165e-05
1.7991609977324263,5.342522578046059e-05
1.803469387755102,5.276603322547823e-05
1.8078004535147392,5.2147489201590594e-05
1.812108843537415,5.158488347520081e-05
1.8164172335600908,5.107993822950564e-05
1.8207256235827665,5.064325183675796e-05
1.8250340136054422,5.0284809199745766e-05
1.8293424036281178,5.00138680625609e-05
1.8336507936507938,4.983884835952355e-05
1.8379591836734694,4.976722583408496e-05
1.8422448979591837,4.9806500204564466e-05
1.8465532879818594,4.9967516240142856e-05
1.8508616780045353,5.02480374132287e-05
1.855170068027211,5.0650378810328515e-05
1.8594784580498867,5.1175473858916905e-05
1.8637868480725623,5.1822823263623986e-05
1.868095238095238,5.2590456517020756e-05
1.872403628117914,5.347490684497333e-05
1.8767120181405896,5.447120033463995e-05
1.8810204081632653,5.55728598680475e-05
1.885328798185941,5.677192434654401e-05
1.889637188208617,5.805898354267825e-05
1.8939455782312926,5.9423228757359365e-05
1.8982766439909298,6.085804271214463e-05
1.9025850340136055,6.236246018667828e-05
1.9068934240362811,6.390915261323778e-05
1.9112244897959183,6.550322985045125e-05
1.9155328798185942,6.712547132077553e-05
1.9198639455782314,6.877445118483976e-05
1.924172335600907,7.042545390410723e-05
1.9285034013605442,7.209680266834017e-05
1.9328344671201814,7.375519263405466e-05
1.9371655328798187,7.539463195907097e-05
1.9414739229024944,7.701544344296316e-05
1.9458049886621316,7.861238527162039e-05
1.9501360544217687,8.016901919251221e-05
1.954467120181406,8.167897181605589e-05
1.958798185941043,8.313585817104799e-05
1.9631292517006804,8.453331149797084e-05
1.9674603174603176,8.586501377814101e-05
1.9717913832199547,8.71247268389898e-05
1.9761224489795919,8.830632386838673e-05
1.980453514739229,8.940382116456823e-05
1.9847845804988662,9.041140994308032e-05
1.9891156462585033,9.132348801807165e-05
1.9934467120181407,9.213469117254487e-05
1.9978004535147393,9.285529241572356e-05
2.0021315192743763,9.346755763753216e-05
2.0064625850340136,9.396632305702184e-05
2.010793650793651,9.434731395252305e-05
2.015124716553288,9.460662849364461e-05
2.019478458049887,9.475853114687268e-05
2.0238095238095237,9.478914949246049e-05
2.028140589569161,9.468983666241142e-05
2.032471655328798,9.445822274436645e-05
2.036825396825397,9.411253510670631e-05
2.0411564625850342,9.363899809009461e-05
2.045487528344671,9.302924191384427e-05
2.04984126984127,9.228727811224097e-05
2.054172335600907,9.14327150033372e-05
2.0585034013605443,9.044151228638276e-05
2.0628344671201813,8.931449506202054e-05
2.06718820861678,8.807510296184284e-05
2.0715192743764175,8.670881487159113e-05
2.0758503401360544,8.521143391421875e-05
2.0802040816326532,8.359701485489885e-05
2.08453514739229,8.18719933799956e-05
2.0888662131519276,8.00244067440445e-05
2.0931972789115645,7.805855155683522e-05
2.0975510204081633,7.59993440126399e-05
2.1018820861678007,7.383180802120971e-05
2.1062131519274376,7.155976528856412e-05
2.110544217687075,6.918948375248846e-05
2.1148979591836734,6.673944380216306e-05
2.119229024943311,6.420523470607813e-05
2.1235600907029477,6.159165109018337e-05
2.127891156462585,5.890684463782065e-05
2.1322222222222225,5.615945896217934e-05
2.1365532879818594,5.3358616241425815e-05
2.1408843537414968,5.0513903155610475e-05
2.1452154195011337,4.763535610544234e-05
2.149546485260771,4.4733445663202285e-05
2.1538548752834465,4.182336130308913e-05
2.158185941043084,3.892774293893499e-05
2.16249433106576,3.6055118557085935e-05
2.1668027210884353,3.323361603861888e-05
2.171111111111111,3.0495462043102477e-05
2.1754195011337867,2.7872343806469405e-05
2.179705215419501,2.5408542286306732e-05
2.1839909297052156,2.3159083609450885e-05
2.188253968253968,2.119464327537473e-05
2.1924943310657596,1.9587383785050446e-05
2.1967573696145126,1.842339157606884e-05
2.2009750566893422,1.7764866773804998e-05
2.2052154195011338,1.7643397952319044e-05
2.2094557823129253,1.8041363451097776e-05
2.213696145124717,1.890077329164969e-05
2.2179591836734693,2.0130135021043234e-05
2.2222222222222223,2.1636015425215786e-05
