time,potential
0.09068027210884354,0.0
0.09616780045351474,7.080467752715317e-21
0.1000453514739229,3.712150701873371e-19
0.10405895691609977,6.247542581423255e-18
0.10816326530612246,5.624971590938939e-17
0.11235827664399094,3.3679255444856417e-16
0.11659863945578232,1.5122575053765437e-15
0.1208843537414966,5.485375350271271e-15
0.1251700680272109,1.6885860578512027e-14
0.1294784580498866,4.562318080893577e-14
0.13378684807256236,1.1086231361810963e-13
0.13811791383219954,2.4672874711261716e-13
0.14244897959183675,5.09934353081886e-13
0.14678004535147393,9.89656297541291e-13
0.15113378684807258,1.820562004396307e-12
0.1554875283446712,3.1971709615975572e-12
0.1598185941043084,5.395322910755538e-12
0.16417233560090702,8.79478187835446e-12
0.16852607709750567,1.3908822689257434e-11
0.1728798185941043,2.1421567162714778e-11
0.1772562358276644,3.2232428109614195e-11
0.18160997732426304,4.752147397838469e-11
0.18596371882086168,6.879957901753342e-11
0.19031746031746033,9.800739652288897e-11
0.1946938775510204,1.3763199181836123e-10
0.19904761904761906,1.9087211781600466e-10
0.2034013605442177,2.617089028279943e-10
0.20777777777777778,3.553285177211158e-10
0.21213151927437643,4.781881564853948e-10
0.2165079365079365,6.385901787659089e-10
0.22086167800453516,8.469682993926831e-10
0.22523809523809524,1.116691517183402e-09
0.22959183673469388,1.4642762047029042e-09
0.23396825396825396,1.9113087942761754e-09
0.23834467120181407,2.4835393147383374e-09
0.2426984126984127,3.2143627835740506e-09
0.2470748299319728,4.1438095257990315e-09
0.25142857142857145,5.3211987495995956e-09
0.2558049886621315,6.80677819583091e-09
0.26015873015873014,8.671380862911213e-09
0.2645351473922903,1.1000160921172794e-08
0.2688888888888889,1.3894002064090168e-08
0.2732426303854875,1.746662462500457e-08
0.2776190476190476,2.18522918708865e-08
0.28197278911564627,2.7208773063980325e-08
0.2863265306122449,3.3706183936308856e-08
0.29068027210884356,4.154048937986654e-08
0.2950340136054422,5.093054099696558e-08
0.2993877551020408,6.211881156005597e-08
0.30374149659863947,7.537185523343337e-08
0.3080952380952381,9.098045787828527e-08
0.3124263038548753,1.092669727566596e-07
0.3167800453514739,1.3058388485566633e-07
0.3211337868480726,1.552863563152893e-07
0.3254875283446712,1.837611852935668e-07
0.3298185941043084,2.164241725431916e-07
0.33417233560090703,2.5376930141276607e-07
0.33852607709750565,2.961952899614089e-07
0.34285714285714286,3.441793524672243e-07
0.3472108843537415,3.9832528820085015e-07
0.35156462585034015,4.5902070756119423e-07
0.3558956916099773,5.268922177737082e-07
0.360249433106576,6.024589424112792e-07
0.36458049886621313,6.862269145056476e-07
0.3689342403628118,7.788951961972184e-07
0.373265306122449,8.808315903636168e-07
0.37761904761904763,9.928723247751728e-07
0.38195011337868484,1.1152993326541572e-06
0.38630385487528346,1.2489737194690325e-06
0.39063492063492067,1.3942292554526862e-06
0.3949886621315193,1.5517355587705591e-06
0.3993197278911565,1.722141258505003e-06
0.40365079365079365,1.9055980583743396e-06
0.4080045351473923,2.1033946060096208e-06
0.4123356009070295,2.315386385142668e-06
0.41668934240362815,2.5421145565805505e-06
0.4210204081632653,2.7848447070136064e-06
0.4253514739229025,3.043324913727436e-06
0.42968253968253967,3.3180586851967014e-06
0.43403628117913834,3.610196058071722e-06
0.4383673469387755,3.920041323432031e-06
0.4426984126984127,4.247819993535329e-06
0.4470294784580499,4.594109814542824e-06
0.45136054421768707,4.959524285503267e-06
0.45571428571428574,5.345425145459362e-06
0.4600453514739229,5.751969280903751e-06
0.4643764172335601,6.179753325395275e-06
0.4687074829931973,6.629590876823176e-06
0.47303854875283446,7.102368379773044e-06
0.4773696145124717,7.599052670132725e-06
0.4817006802721088,8.12069805851613e-06
0.48603174603174604,8.668452782242488e-06
0.49036281179138325,9.24356465413301e-06
0.4946938775510204,9.84738573788866e-06
0.4990249433106576,1.048137588440777e-05
0.5033560090702948,1.1147104971084051e-05
0.507687074829932,1.184625369681377e-05
0.5120181405895692,1.2580612798961595e-05
0.5163492063492063,1.3352080574838746e-05
0.5206802721088436,1.4162658609261543e-05
0.5249886621315193,1.5014826521388803e-05
0.5293197278911564,1.5912166870947906e-05
0.5336507936507937,1.6855518228519132e-05
0.5379818594104309,1.784721663127569e-05
0.542312925170068,1.888964624522977e-05
0.5466439909297053,1.9985223193297668e-05
0.5509750566893424,2.113637765519311e-05
0.5553061224489796,2.23455343671479e-05
0.5596145124716554,2.3616593368441152e-05
0.5639455782312925,2.495213906935704e-05
0.5682766439909297,2.635284437412899e-05
0.5726077097505669,2.782084139480648e-05
0.5769387755102041,2.9358134965406587e-05
0.5812698412698413,3.096657788853599e-05
0.5856009070294784,3.264784628597315e-05
0.5899319727891157,3.4403415355654014e-05
0.5942630385487528,3.623453584300307e-05
0.59859410430839,3.814221153558407e-05
0.6029251700680273,4.0127178086227084e-05
0.6072562358276644,4.218988346101102e-05
0.6115873015873016,4.43304702950803e-05
0.6159183673469388,4.6548760421367545e-05
0.620249433106576,4.8844241815175484e-05
0.6245804988662131,5.1216058171072437e-05
0.6289115646258504,5.366300129797545e-05
0.6332426303854876,5.618350648401049e-05
0.6375736961451247,5.877565094567876e-05
0.6419047619047619,6.143715543679809e-05
0.6462358276643991,6.416538905229149e-05
0.6505895691609977,6.696101826774413e-05
0.6549206349206349,6.982478722658482e-05
0.6592517006802722,7.274713863629514e-05
0.6635827664399093,7.572422537860286e-05
0.6679138321995465,7.875191172665806e-05
0.6722448979591837,8.182579507162255e-05
0.6765986394557824,8.494905631592578e-05
0.6809297052154195,8.812072831088841e-05
0.6852607709750567,9.132612328567519e-05
0.6895918367346939,9.456006511516096e-05
0.6939229024943311,9.781723942182036e-05
0.6982766439909297,0.00010110981140068516
0.7026077097505669,0.00010442378071730888
0.7069387755102041,0.00010774666993281396
0.7112698412698413,0.00011107291766065638
0.7156235827664399,0.00011441061026157536
0.7199546485260772,0.00011775854560084569
0.7242857142857143,0.0001210953987015601
0.7286167800453515,0.0001244157860853856
0.7329705215419501,0.0001277288024247867
0.7373015873015873,0.0001310366295858011
0.7416326530612245,0.0001343145182712375
0.7459637188208617,0.00013755762264590276
0.7503174603174604,0.00014077895160689144
0.7546485260770975,0.00014397850834761193
0.7589795918367347,0.00014713161351937102
0.7633106575963718,0.00015023419717251138
0.7676643990929706,0.0001533033293629651
0.7719954648526077,0.00015633626055075402
0.7763265306122449,0.00015930925674469872
0.7806575963718821,0.00016221910484403695
0.7850113378684808,0.00016508428556825445
0.7893424036281179,0.00016790385391374102
0.7936734693877551,0.00017065310679777453
0.7980045351473923,0.00017332960151673983
0.802358276643991,0.00017594830379839355
0.8066893424036281,0.0001785188521967384
0.8110204081632654,0.0001810112636720418
0.8153514739229025,0.0001834236289280452
0.8197052154195011,0.0001857612025603555
0.8240362811791383,0.00018805537723010286
0.8283673469387756,0.00019026508705921014
0.8326984126984127,0.0001923886110323578
0.8370294784580499,0.00019442422409591363
0.8413832199546486,0.0001964095525085099
0.8457142857142858,0.00019831306247054288
0.8500453514739229,0.0002001239510556767
0.8543764172335601,0.0002018401939272371
0.8587301587301588,0.0002034799412968328
0.8630612244897959,0.0002050505311637453
0.8673922902494331,0.00020652032702135145
0.8717233560090704,0.00020788667379111465
0.8760544217687075,0.00020914672860081809
0.8804081632653061,0.00021034904042812732
0.8847392290249433,0.00021143971808618235
0.8890702947845806,0.0002124150812854005
0.8934013605442177,0.00021327144964811566
0.8977551020408163,0.00021403956621316486
0.9020861678004536,0.00021470044690753855
0.9064172335600907,0.00021523077151232753
0.9107482993197279,0.00021562610384547973
0.9151020408163265,0.00021590378509587005
0.9194331065759638,0.00021607128045086625
0.9237641723356009,0.00021609018621668752
0.9280952380952381,0.00021595565625793188
0.9324489795918367,0.0002156768561983896
0.936780045351474,0.00021527773932041388
0.9411111111111111,0.00021471079589711529
0.9454421768707483,0.00021397138131143797
0.949795918367347,0.00021306380776397194
0.9541269841269842,0.0002120222356992649
0.9584580498866213,0.00021079494307132032
0.9627891156462586,0.0002093783202993975
0.9671428571428572,0.0002077696927355399
0.9714739229024943,0.00020601761104257108
0.9758049886621315,0.00020406654515760787
0.9801360544217688,0.0002019148864214815
0.9844671201814059,0.00019956177371202385
0.9888208616780045,0.00019703131432150797
0.9931519274376417,0.0001943172663948479
0.997482993197279,0.00019140060959443699
1.0018140589569162,0.0001882836909474907
1.0061451247165534,0.00018496989415640975
1.0104761904761905,0.0001814636849987593
1.0148299319727891,0.00017778596842490295
1.0191609977324263,0.00017392961988208405
1.0234920634920635,0.0001698950368884934
1.0278231292517006,0.00016569090055232005
1.032154195011338,0.00016132709369362679
1.0364852607709751,0.00015681469784579037
1.0408163265306123,0.0001521659799188746
1.045124716553288,0.00014740280219087637
1.0494557823129251,0.00014255662265896175
1.0537868480725623,0.00013762631602531463
1.0581179138321997,0.00013262879557711892
1.0624263038548754,0.00012763908487794845
1.0667573696145125,0.00012263631221880777
1.0710657596371882,0.00011771959880056184
1.0753741496598639,0.0001128957384158176
1.0796825396825398,0.00010822872744567159
1.0839909297052155,0.00010378185376551873
1.0882993197278912,9.961695948090571e-05
1.0925850340136054,9.5842631989145e-05
1.0968707482993199,9.250225044461122e-05
1.101156462585034,8.969991826221398e-05
1.1054421768707483,8.75252246846921e-05
1.1097278911564625,8.605114616098403e-05
1.114013605442177,8.533223832037015e-05
1.1182993197278912,8.540316335037428e-05
1.122562358276644,8.628294067390589e-05
1.1268480725623582,8.797278463642134e-05
1.1311337868480726,9.041712871035985e-05
1.1354195011337869,9.355974119225535e-05
1.139705215419501,9.732352054290212e-05
1.1440136054421768,0.00010166068057745347
1.1483219954648527,0.00010644512504430232
1.152607709750567,0.00011163060534100561
1.1569160997732426,0.00011713247302321817
1.1612471655328798,0.00012288447229730155
1.1655555555555557,0.0001288333635610455
1.1698639455782314,0.000134892659881343
1.1741950113378685,0.00014105213437265712
1.1785260770975057,0.00014722634118068516
1.1828344671201814,0.000153400992235727
1.1871655328798185,0.00015954495974684001
1.191496598639456,0.0001656080389690741
1.195827664399093,0.0001715620771548529
1.2001587301587302,0.00017737911154704224
1.2044897959183674,0.00018303154268171866
1.208843537414966,0.00018851622499878198
1.2131746031746031,0.00019380512960293853
1.2175056689342403,0.0001988611042519671
1.2218367346938777,0.0002036592339756621
1.2261904761904763,0.0002082215307025592
1.2305215419501134,0.0002125149577588736
1.2348526077097506,0.00021649190046441557
1.2392063492063492,0.00022020971570284236
1.2435374149659864,0.00022359660138615355
1.247891156462585,0.0002266628444487935
1.2522222222222223,0.0002294163597367797
1.256575963718821,0.00023180692308420885
1.2609070294784581,0.00023389168244038238
1.2652607709750567,0.00023558894600199365
1.269591836734694,0.00023697808031847886
1.2739455782312925,0.00023797124039740797
1.2782766439909297,0.00023864682788752293
1.2826303854875283,0.0002389321136388156
1.2869614512471657,0.0002388854466446245
1.2913151927437643,0.0002384662219181663
1.2956462585034014,0.00023769790677407795
1.3,0.00023658465732746532
1.3043310657596372,0.00023510454770303094
1.3086848072562358,0.00023331475574484513
1.313015873015873,0.00023114172292235723
1.3173696145124716,0.00022869963266719333
1.3217233560090704,0.0002258885196625718
1.3260544217687076,0.00022279745839043187
1.3304081632653062,0.00021938338607687736
1.3347392290249434,0.00021568048775870134
1.339092970521542,0.00021170283338532633
1.3434240362811791,0.00020743386312020528
1.3477777777777777,0.00020293721081303298
1.352108843537415,0.00019815421215894048
1.3564625850340137,0.00019318771444446116
1.3608163265306124,0.00018795776122524488
1.3651473922902495,0.00018256473694197275
1.3695011337868481,0.00017694679598422337
1.3738321995464853,0.00017118607440455086
1.378185941043084,0.00016523761201919757
1.382517006802721,0.00015917502054984626
1.3868707482993197,0.00015295542862241976
1.391201814058957,0.0001466583803296571
1.3955328798185942,0.00014023520937599088
1.3998866213151928,0.00013376443668417935
1.40421768707483,0.00012721346258198386
1.4085714285714286,0.00012062090551214605
1.4129024943310657,0.00011400817594615097
1.417233560090703,0.00010736851933781874
1.4215873015873015,0.00010074187383181321
1.4259183673469389,9.413885263544555e-05
1.430249433106576,8.756424345480807e-05
1.4345804988662132,8.103743878116375e-05
1.4389115646258503,7.457671523617431e-05
1.4432426303854875,6.819912724057721e-05
1.4475736961451247,6.192041144744505e-05
1.451904761904762,5.57549026451703e-05
1.4562358276643992,4.971546174892345e-05
1.4605668934240363,4.381341640784818e-05
1.464875283446712,3.808753250181764e-05
1.4691836734693877,3.2549335808768396e-05
1.4734693877551022,2.724338236271851e-05
1.4777551020408164,2.222791991726681e-05
1.4819954648526077,1.7614883476848328e-05
1.4861904761904763,1.3616547142508165e-05
1.4903174603174603,1.065403169388128e-05
1.49437641723356,9.363690126705977e-06
1.4984126984126984,1.0104690749985666e-05
1.5025396825396826,1.2420734327008517e-05
1.506734693877551,1.556885156429996e-05
1.5109750566893425,1.9070887238582485e-05
1.5152380952380953,2.2691614365529262e-05
1.5195238095238095,2.6314226868699854e-05
1.523809523809524,2.9882316544784582e-05
1.5281179138321996,3.33787488855571e-05
1.5324489795918368,3.6784399527291125e-05
1.5367573696145125,4.010608517831013e-05
1.5410657596371882,4.333763704497393e-05
1.5453968253968253,4.64830641597647e-05
1.5497052154195012,4.956511251921045e-05
1.5540362811791384,5.2575519636821166e-05
1.558344671201814,5.554426921884703e-05
1.5626757369614512,5.8468256411600906e-05
1.566984126984127,6.136665184135737e-05
1.5713151927437643,6.425596355375983e-05
1.5756462585034015,6.713416011735117e-05
1.5799546485260771,7.003348995744386e-05
1.5842857142857143,7.295178118654205e-05
1.5886167800453515,7.589374635284895e-05
1.5929251700680271,7.88857177549537e-05
1.5972562358276645,8.192750667653717e-05
1.6015873015873017,8.501867004211706e-05
1.6059183673469388,8.816530455751897e-05
1.6102267573696145,9.13801991587251e-05
1.6145578231292517,9.46656832471024e-05
1.6188888888888888,9.801372697922141e-05
1.6232199546485262,0.0001014238930924434
1.6275510204081634,0.00010489403610875382
1.6318820861678005,0.00010842025334144882
1.6362131519274377,0.00011199685002698794
1.6405442176870748,0.00011561631909233086
1.644875283446712,0.0001192693359723631
1.6492063492063493,0.00012294476879122883
1.653560090702948,0.00012665633146164326
1.6578911564625851,0.0001303722034414881
1.6622222222222223,0.00013407450114253782
1.6665759637188209,0.00013775623355240775
1.670907029478458,0.00014143433791720294
1.6752380952380952,0.00014505068286536178
1.6795918367346938,0.00014863313582467948
1.6839229024943312,0.0001521411774683679
1.6882766439909298,0.00015558366008651585
1.692607709750567,0.00015892335844687873
1.6969614512471656,0.00016218858390100563
1.7013151927437642,0.0001653185954215712
1.7056462585034013,0.00016834183059648118
1.71,0.00017123903490313456
1.7143537414965986,0.00017398036412528343
1.7187074829931974,0.00017656062686146023
1.7230385487528346,0.000179000994627567
1.7273922902494332,0.0001812741326870316
1.7317460317460318,0.00018336597582082687
1.7360997732426304,0.0001852720365728824
1.740453514739229,0.00018698811694934693
1.7448072562358277,0.00018851031742292548
1.7491609977324263,0.0001898350462941181
1.753514739229025,0.0001909590293713277
1.7578684807256235,0.0001918793199219816
1.7622222222222224,0.0001925933088386443
1.766575963718821,0.00019309873495680622
1.770952380952381,0.00019342261088932115
1.7753061224489797,0.00019355675768309061
1.7796598639455783,0.0001934860741938237
1.7840362811791384,0.0001932112332975319
1.788390022675737,0.00019280608732108443
1.7927437641723356,0.0001922038002128373
1.7971201814058957,0.00019145902986052643
1.8014739229024943,0.00019056817211322478
1.8058503401360544,0.00018956072565255963
1.810204081632653,0.00018842242557774795
1.814580498866213,0.0001872352867072268
1.8189569160997732,0.0001859628412714619
1.8233333333333335,0.0001846383119871518
1.827687074829932,0.0001833014096426308
1.8320634920634922,0.00018199279407095283
1.8364399092970523,0.0001807198165623705
1.8408163265306123,0.00017951482732429862
1.8451927437641724,0.00017840932524153407
1.849591836734694,0.00017743732175934146
1.853968253968254,0.0001766537578952412
1.8583446712018141,0.00017606550026285473
1.8627210884353742,0.00017569732382945261
1.8671201814058958,0.0001755736171667676
1.8714965986394558,0.00017577523910311207
1.875873015873016,0.00017626257218068678
1.8802721088435375,0.0001770714516682894
1.8846485260770975,0.00017824397182578504
1.8890249433106576,0.00017973597076952302
1.8934240362811792,0.00018161056748093856
1.8978004535147392,0.00018382187881679362
1.9021995464852608,0.00018635844339262475
1.9065759637188209,0.00018925948446600464
1.910952380952381,0.00019245197279148837
1.915328798185941,0.00019591963503240713
1.9197278911564626,0.00019966413637460131
1.9241043083900227,0.0002036531843902829
1.9284807256235827,0.00020783924983171554
1.9328571428571428,0.00021219249896371978
1.937233560090703,0.00021668039210810864
1.941609977324263,0.0002212678985795116
1.945986394557823,0.00022591773730477806
1.9503628117913832,0.00023059064185503985
1.954716553287982,0.00023527560215041497
1.959092970521542,0.00023993485054162384
1.9634693877551022,0.00024450453154204106
1.9678231292517008,0.0002489414435375743
1.9721995464852609,0.00025330119451598935
1.976575963718821,0.0002574519106978976
1.9809297052154196,0.0002614190107967927
1.9853061224489796,0.000265156541096493
1.9896598639455783,0.00026863992159063994
1.9940362811791383,0.00027183774788163583
1.998390022675737,0.0002747490003304746
2.0027664399092973,0.00027728484671275566
2.0071201814058957,0.00027953918597631706
2.0114739229024945,0.0002813836476010661
2.0158503401360544,0.0002828160820693192
2.020204081632653,0.00028389351063859403
2.0245578231292516,0.0002845186877793041
2.0289115646258504,0.00028468102051906443
2.0332879818594103,0.0002844093975450012
2.037641723356009,0.0002836877036880822
2.041995464852608,0.000282472247917782
2.0463492063492064,0.00028075661882975855
2.050702947845805,0.00027853556493212983
2.055079365079365,0.0002758451291318081
2.059433106575964,0.0002726499606107885
2.0637868480725623,0.0002689366664569391
2.068140589569161,0.00026470509364143977
2.0724943310657595,0.00025995641625435416
2.0768480725623584,0.00025469315551125726
2.0812018140589568,0.00024891919617285867
2.085578231292517,0.0002426698503624527
2.089931972789116,0.00023592004474132306
2.0942857142857143,0.00022867697235456249
2.098639455782313,0.000220950273661863
2.1029931972789115,0.0002127509838585974
2.1073469387755104,0.00020409152360895434
2.1117006802721088,0.0001949856852678131
2.1160544217687076,0.00018544861451801073
2.1204308390022675,0.0001755083723565967
2.1247845804988663,0.00016518529007215216
2.1291383219954647,0.00015448403762869712
2.1334920634920636,0.0001434251155707997
2.1378458049886624,0.00013203021134171805
2.1422222222222222,0.000120333603667162
2.146575963718821,0.0001083758074186709
2.1509297052154195,9.615478932550893e-05
2.15530612244898,8.374087218539714e-05
2.1596825396825396,7.115481655115088e-05
2.1640589569161,5.847069344105098e-05
2.1684580498866213,4.579254780135621e-05
2.172902494331066,3.335509295696032e-05
2.177437641723356,2.1922097301578606e-05
2.1823809523809525,1.5411892006249736e-05
2.1873469387755105,2.1380143982270952e-05
