time,potential
0.1044671201814059,0.0
0.10773242630385488,1.2080010607714089e-22
0.11138321995464853,3.62319692966592e-20
0.11523809523809524,1.4707425128834139e-18
0.1192517006802721,2.3382618564787558e-17
0.12337868480725624,2.0740735012394626e-16
0.12755102040816327,1.2354828522903843e-15
0.13179138321995465,5.522996280562506e-15
0.1360544217687075,1.9913965116256375e-14
0.14034013605442178,6.085562066929742e-14
0.14462585034013606,1.6324402292586922e-13
0.1489342403628118,3.9429831264706415e-13
0.15324263038548752,8.739854718646916e-13
0.15755102040816327,1.8036308190649399e-12
0.16188208616780045,3.504138495599649e-12
0.1661904761904762,6.468136141136935e-12
0.17052154195011338,1.141982667281413e-11
0.17485260770975056,1.9397351324114184e-11
0.1791609977324263,3.1854102446685507e-11
0.18349206349206348,5.076227967267526e-11
0.1878231292517007,7.875700422407663e-11
0.19215419501133787,1.192914211002221e-10
0.19648526077097506,1.768148560876936e-10
0.2008390022675737,2.5697888829240075e-10
0.20517006802721088,3.669087385003485e-10
0.20950113378684806,5.153401880464005e-10
0.21383219954648527,7.129680924839212e-10
0.21816326530612246,9.727065790129472e-10
0.2225170068027211,1.310333865903405e-09
0.22684807256235828,1.74414817374825e-09
0.23117913832199546,2.2956311188045117e-09
0.2355328798185941,2.9908434359608444e-09
0.2398639455782313,3.858588855173178e-09
0.24421768707482994,4.932707402405851e-09
0.24854875283446712,6.252817232921224e-09
0.25290249433106576,7.860881879946548e-09
0.257233560090703,9.810083769941241e-09
0.2615646258503401,1.2151900934876451e-08
0.2659183673469388,1.495336468062487e-08
0.27024943310657595,1.8278567920668574e-08
0.2746031746031746,2.2210083879693663e-08
0.2789342403628118,2.6824931903329654e-08
0.28328798185941045,3.222458150678761e-08
0.2876190476190476,3.8497505285484166e-08
0.2919727891156463,4.576912366587899e-08
0.2963265306122449,5.4137655932679205e-08
0.3006575963718821,6.375268524713594e-08
0.3050113378684807,7.47275240512244e-08
0.30934240362811793,8.722665322257857e-08
0.31369614512471655,1.0139077288188107e-07
0.31802721088435376,1.1738652877340665e-07
0.3223809523809524,1.3539601437223085e-07
0.3267120181405896,1.555686905411309e-07
0.3310657596371882,1.7814966037906252e-07
0.3354195011337869,2.0326693362229789e-07
0.33975056689342403,2.31183812504491e-07
0.3441043083900227,2.6207002507606017e-07
0.34843537414965986,2.961373436175872e-07
0.35278911564625853,3.3365861416358815e-07
0.35714285714285715,3.747569394434817e-07
0.36147392290249436,4.1978603461469926e-07
0.365827664399093,4.688636002574928e-07
0.3701587301587302,5.222349336135877e-07
0.3745124716553288,5.802067185134107e-07
0.3788662131519274,6.428376361132413e-07
0.38319727891156463,7.105380846106245e-07
0.38755102040816325,7.83379524030876e-07
0.39188208616780046,8.615214451471899e-07
0.3962358276643991,9.453989693163321e-07
0.40058956916099775,1.0348860685471673e-06
0.4049206349206349,1.1303349513937285e-06
0.4092743764172336,1.2319152494701422e-06
0.4136281179138322,1.3395125153888741e-06
0.4179591836734694,1.4536430934359934e-06
0.422312925170068,1.5741144487889189e-06
0.42664399092970523,1.7008459672283184e-06
0.43099773242630385,1.8345321473787823e-06
0.4353514739229025,1.9745534854466196e-06
0.4396825396825397,2.120990768432465e-06
0.44403628117913835,2.2743634592235992e-06
0.44839002267573697,2.433949533038182e-06
0.4527210884353742,2.5998415527048564e-06
0.4570748299319728,2.7724330689498378e-06
0.46142857142857147,2.9508563891955825e-06
0.4657596371882086,3.1351378759160785e-06
0.4701133786848073,3.325680234333342e-06
0.4744671201814059,3.521389385357752e-06
0.4787981859410431,3.7220895598040594e-06
0.48315192743764174,3.928442035121523e-06
0.48750566893424035,4.138993795592013e-06
0.49185941043083903,4.353311179647613e-06
0.4961904761904762,4.572246863373907e-06
0.5005442176870748,4.794249285811594e-06
0.5048979591836735,5.018623831206509e-06
0.5092290249433107,5.245640684420366e-06
0.5135827664399093,5.474705449825832e-06
0.5179365079365079,5.704416168793748e-06
0.5222902494331065,5.9340850360786224e-06
0.5266213151927438,6.164749280159796e-06
0.5309750566893424,6.39403287378524e-06
0.535328798185941,6.621097364470591e-06
0.5396598639455782,6.845513616929363e-06
0.5440136054421769,7.06754432306281e-06
0.5483673469387755,7.284836328876065e-06
0.5527210884353742,7.496449556586759e-06
0.5570521541950113,7.70173494004924e-06
0.56140589569161,7.901031144740532e-06
0.5657596371882087,8.091690716625273e-06
0.5701133786848073,8.272642330475602e-06
0.5744671201814059,8.442787212738467e-06
0.578798185941043,8.6024008214963e-06
0.5831519274376418,8.749490327607691e-06
0.5875056689342404,8.882329071703117e-06
0.591859410430839,8.999712023549797e-06
0.5962131519274376,9.100415343521635e-06
0.6005442176870749,9.184386882032779e-06
0.6048979591836735,9.249740272336891e-06
0.6092517006802721,9.29459995972897e-06
0.6136054421768707,9.31767566555005e-06
0.6179591836734694,9.317670608564675e-06
0.6223129251700681,9.293284498800043e-06
0.6266439909297052,9.243855040121498e-06
0.6309977324263039,9.168082160644507e-06
0.6353514739229025,9.063919677293081e-06
0.6397052154195011,8.930070687285394e-06
0.6440589569160998,8.765251740099606e-06
0.6484126984126984,8.568196680999605e-06
0.6527664399092971,8.337660616884247e-06
0.6571201814058957,8.072423999853744e-06
0.6614739229024943,7.771296822908865e-06
0.665827664399093,7.433122921061812e-06
0.6701814058956916,7.056784369881482e-06
0.6745351473922903,6.641205972181189e-06
0.6788888888888889,6.185359822208167e-06
0.6832426303854875,5.688269935230945e-06
0.6875963718820862,5.149016928887122e-06
0.6919501133786848,4.5667427410714444e-06
0.6963265306122449,3.942088939302568e-06
0.700702947845805,3.274091286348873e-06
0.7050793650793651,2.5653921013025916e-06
0.7094784580498866,1.820894073953382e-06
0.7140136054421768,1.070540518122066e-06
0.719342403628118,6.865922116281884e-07
0.7242403628117914,1.4104660129020872e-06
0.7287074829931973,2.3491398197320243e-06
0.7331065759637189,3.3604188490465924e-06
0.7375056689342404,4.427743314240563e-06
0.741859410430839,5.547166507405668e-06
0.7462358276643991,6.715315645599673e-06
0.7505895691609977,7.932697552066464e-06
0.7549433106575963,9.196943105086081e-06
0.7592970521541951,1.0507387674600371e-05
0.7636507936507937,1.1863236361161437e-05
0.7680272108843538,1.3263829611695127e-05
0.7723809523809524,1.470870275631098e-05
0.776734693877551,1.6195742472037712e-05
0.7810884353741496,1.7723621056894747e-05
0.7854421768707484,1.929087607329177e-05
0.789795918367347,2.089591070339252e-05
0.7941496598639456,2.253699458381322e-05
0.7985034013605442,2.4212265130873342e-05
0.8028571428571428,2.5919729365725958e-05
0.8072108843537416,2.7657266246545427e-05
0.8115646258503402,2.9422629512701963e-05
0.8159183673469388,3.121345104335733e-05
0.8202721088435374,3.302724473031458e-05
0.824625850340136,3.486141086217001e-05
0.8289795918367348,3.671324101395039e-05
0.8333333333333334,3.8579923433286954e-05
0.837687074829932,4.045854891096946e-05
0.8420408163265306,4.2346117120465206e-05
0.8463945578231292,4.423954340763977e-05
0.850748299319728,4.613566600879128e-05
0.8551020408163266,4.8031253672039654e-05
0.8594557823129252,4.992301365434744e-05
0.8638095238095238,5.180760006382357e-05
0.8681632653061224,5.368162251473218e-05
0.8725170068027212,5.554165506081179e-05
0.8768707482993198,5.738424537107269e-05
0.8812244897959184,5.9205924111278006e-05
0.885578231292517,6.1003214493587414e-05
0.8899319727891156,6.277264195631038e-05
0.8942857142857144,6.451074393528557e-05
0.898639455782313,6.621407968804226e-05
0.9029931972789116,6.787924013182085e-05
0.9073469387755102,6.950285765671999e-05
0.9117006802721088,7.108161587558091e-05
0.9160544217687075,7.261225927282894e-05
0.9204081632653062,7.409160271527673e-05
0.9247619047619048,7.551654078894688e-05
0.9291156462585034,7.688405692708368e-05
0.933469387755102,7.819123229586235e-05
0.9378231292517007,7.943525440573315e-05
0.9421768707482994,8.061342541764621e-05
0.946530612244898,8.172317011512732e-05
0.9508843537414966,8.276204351467101e-05
0.9552607709750567,8.372919139147192e-05
0.9596145124716553,8.462548046020417e-05
0.963968253968254,8.544491953316367e-05
0.9683219954648526,8.618566446352823e-05
0.9726757369614513,8.684603194776351e-05
0.9770294784580499,8.742450440269726e-05
0.9813832199546485,8.791973433969902e-05
0.9857369614512472,8.833054822379e-05
0.9900907029478458,8.865594980772268e-05
0.9944444444444445,8.889512293325812e-05
0.9987981859410431,8.90474337941725e-05
1.0031746031746032,8.911319040602867e-05
1.0075283446712018,8.910256875974415e-05
1.0118820861678004,8.900494514902186e-05
1.016235827664399,8.882042205135608e-05
1.0205895691609979,8.854928544558132e-05
1.0249433106575965,8.819200380984476e-05
1.029297052154195,8.774922660255451e-05
1.0336734693877552,8.72264764319239e-05
1.0380272108843538,8.663238267542094e-05
1.0423809523809524,8.5956467839986e-05
1.046734693877551,8.520005893127694e-05
1.0510884353741496,8.436464659310579e-05
1.0554648526077097,8.345889782118266e-05
1.0598185941043083,8.249174030811923e-05
1.064172335600907,8.145159969608185e-05
1.0685260770975058,8.034053822373189e-05
1.0729024943310659,7.917141728193508e-05
1.0772562358276645,7.794996498196693e-05
1.0816099773242631,7.66650918942643e-05
1.0859863945578232,7.532533021997067e-05
1.0903401360544218,7.39489521855966e-05
1.0946938775510204,7.251745630733154e-05
1.0990702947845805,7.104815887614583e-05
1.1034240362811791,6.954525405497392e-05
1.1078004535147392,6.799940005697485e-05
1.1121541950113378,6.643956520725835e-05
1.116530612244898,6.483953988368719e-05
1.1208843537414965,6.323715586424006e-05
1.1252607709750566,6.16049371071426e-05
1.1296145124716555,5.997402597481176e-05
1.1339909297052155,5.833078326258759e-05
1.1383446712018142,5.6684758491261743e-05
1.1427210884353742,5.505047389783541e-05
1.1470975056689343,5.3419523300102766e-05
1.1514739229024944,5.179907661516039e-05
1.155827664399093,5.0202315709797706e-05
1.160204081632653,4.8630226516455665e-05
1.1645804988662132,4.708473939298344e-05
1.1689569160997733,4.557133528334329e-05
1.1733333333333333,4.40949671848744e-05
1.1777097505668934,4.2660037391040664e-05
1.1820861678004535,4.1270379672249704e-05
1.1864625850340136,3.992924651502248e-05
1.1908616780045351,3.864165433111454e-05
1.1952380952380952,3.7414887353563374e-05
1.1996145124716553,3.624416662099308e-05
1.2039909297052154,3.513019535658042e-05
1.208390022675737,3.4086191011282887e-05
1.212766439909297,3.310060210345109e-05
1.2171655328798185,3.218068570036312e-05
1.2215419501133786,3.132226686515868e-05
1.2259410430839002,3.0527295714079174e-05
1.2303174603174603,2.9788724566151263e-05
1.2347165532879818,2.911189321786289e-05
1.2391156462585033,2.8483440803345233e-05
1.2434920634920634,2.790909320840793e-05
1.247891156462585,2.7377783262130515e-05
1.252267573696145,2.6885245900293143e-05
1.2566666666666666,2.6431774971533843e-05
1.2610657596371881,2.6003663168922593e-05
1.2654421768707482,2.5605292554841487e-05
1.2698412698412698,2.5223632562811592e-05
1.2742176870748299,2.4858592188187225e-05
1.2786167800453514,2.4503879601876066e-05
1.2829931972789117,2.4155559849017692e-05
1.287392290249433,2.38114243415419e-05
1.2917687074829933,2.346661673991044e-05
1.2961678004535149,2.312124776890688e-05
1.300544217687075,2.2771120985724002e-05
1.3049433106575965,2.2418347171869796e-05
1.3093197278911566,2.2059132815632783e-05
1.3137188208616781,2.1699093544223183e-05
1.3181179138321997,2.1332878926487948e-05
1.3224943310657598,2.097181226269467e-05
1.3268934240362813,2.061175539295298e-05
1.3312925170068028,2.025753111160214e-05
1.335668934240363,1.9918729324949474e-05
1.3400680272108845,1.9598018962022583e-05
1.344467120181406,1.9301646814858256e-05
1.3488662131519276,1.9037240986488297e-05
1.353265306122449,1.881265306013448e-05
1.3576643990929707,1.8635769837454083e-05
1.3620634920634922,1.851431534313979e-05
1.366485260770975,1.8459507203555757e-05
1.3708843537414965,1.8475625054918846e-05
1.375283446712018,1.8567679387520224e-05
1.379705215419501,1.874102960303962e-05
1.3841043083900226,1.9002856961162113e-05
1.3885034013605442,1.9350126749992378e-05
1.3929024943310657,1.978302221178843e-05
1.3973015873015873,2.030005379225645e-05
1.4017006802721088,2.0897959446122208e-05
1.4060997732426304,2.157163293022725e-05
1.410498866213152,2.231408234495981e-05
1.414875283446712,2.3123010436211677e-05
1.4192743764172335,2.3988202096947607e-05
1.4236507936507936,2.4906098019432196e-05
1.4280272108843537,2.5866343119915828e-05
1.4324036281179138,2.6864542937121367e-05
1.4367800453514739,2.7895689407274706e-05
1.441156462585034,2.8954182364969508e-05
1.4455328798185942,3.0033856974350937e-05
1.4499092970521543,3.112801695555655e-05
1.4542857142857144,3.222947341885094e-05
1.458639455782313,3.334298674851091e-05
1.463015873015873,3.445399449910695e-05
1.4673696145124717,3.556655308745272e-05
1.4717460317460318,3.666712362145397e-05
1.4760997732426304,3.7767742865660085e-05
1.480453514739229,3.885241621620088e-05
1.4848072562358277,3.991977953875438e-05
1.4891836734693877,4.096930610697031e-05
1.4935374149659864,4.200406890704397e-05
1.497891156462585,4.3015678234921974e-05
1.5022448979591838,4.400264226694143e-05
1.5065986394557824,4.4963461949116854e-05
1.510952380952381,4.589663604740241e-05
1.5153061224489797,4.68006663938896e-05
1.5196598639455783,4.767406331297726e-05
1.524013605442177,4.851535121005406e-05
1.528344671201814,4.932468085647917e-05
1.5326984126984127,5.010591414126402e-05
1.5370521541950113,5.0852364403214926e-05
1.54140589569161,5.156264177057581e-05
1.5457596371882087,5.223539382575778e-05
1.550090702947846,5.2872455459734406e-05
1.5544444444444445,5.3481833830116964e-05
1.5587981859410431,5.4051364901162646e-05
1.5631519274376418,5.45798504310363e-05
1.567482993197279,5.508078953579848e-05
1.5718367346938775,5.5544336203177035e-05
1.5761904761904761,5.596487661492189e-05
1.5805215419501135,5.636057091927503e-05
1.5848752834467121,5.671579823803693e-05
1.5892063492063493,5.7032362360873877e-05
1.593560090702948,5.732267421027221e-05
1.5979138321995465,5.7567669001831586e-05
1.6022448979591837,5.778890772484335e-05
1.6065986394557823,5.796872100055385e-05
1.6109297052154194,5.8117442002942025e-05
1.615283446712018,5.823233890558778e-05
1.6196145124716554,5.8310681665277904e-05
1.623968253968254,5.836081777995844e-05
1.6282993197278912,5.837044400866162e-05
1.6326530612244898,5.835586860072719e-05
1.636984126984127,5.8297938890586155e-05
1.6413378684807256,5.821860717949137e-05
1.6456689342403628,5.809377503851744e-05
1.6500226757369614,5.794956812293552e-05
1.6543537414965988,5.775798983444054e-05
1.6587074829931974,5.754874063900282e-05
1.663061224489796,5.729201731012555e-05
1.6673922902494331,5.7015622475793975e-05
1.6717460317460318,5.669394235967121e-05
1.676077097505669,5.634928801732073e-05
1.6804308390022675,5.59626411238945e-05
1.684761904761905,5.554846653994302e-05
1.6891156462585035,5.509690197484141e-05
1.6934467120181407,5.461162672473953e-05
1.6978004535147393,5.4095282496339936e-05
1.7021315192743764,5.3537063620736255e-05
1.706485260770975,5.295619338523315e-05
1.7108390022675737,5.233211026977711e-05
1.7151700680272108,5.16779798488937e-05
1.7195238095238095,5.0991079934785835e-05
1.7238775510204083,5.026377494936325e-05
1.7282086167800454,4.951000410236013e-05
1.732562358276644,4.8722245146818425e-05
1.7369160997732427,4.789746224069876e-05
1.7412471655328798,4.7040297199850555e-05
1.7456009070294785,4.615801445769948e-05
1.749954648526077,4.524257688033642e-05
1.7543083900226757,4.429601438256591e-05
1.7586621315192743,4.3320426650474714e-05
1.7630158730158731,4.231797403463143e-05
1.7673696145124718,4.1290868265566344e-05
1.7717233560090704,4.0241363049795735e-05
1.776077097505669,3.917174460427284e-05
1.7804308390022676,3.8084322186272924e-05
1.7847845804988662,3.698141867424067e-05
1.7891383219954649,3.586536125328111e-05
1.793514739229025,3.474056592157976e-05
1.7978684807256236,3.361973724616369e-05
1.8022222222222222,3.2494908508519315e-05
1.8065986394557823,3.1387500604128364e-05
1.8109750566893423,3.0293357257238674e-05
1.8153514739229026,2.92247917055611e-05
1.8197278911564627,2.8193826093198593e-05
1.8241043083900228,2.7212111272040735e-05
1.8284807256235829,2.6290850506587196e-05
1.8328798185941044,2.5440939594286287e-05
1.8372562358276645,2.468842546330216e-05
1.841655328798186,2.4041074422348905e-05
1.8460544217687076,2.3518534763149497e-05
1.8504535147392291,2.313787706744887e-05
1.8548526077097507,2.291314231942685e-05
1.8592743764172337,2.2855841516107605e-05
1.8636734693877552,2.2980071503922748e-05
1.8680725623582768,2.328238629786696e-05
1.8724716553287983,2.376229027638424e-05
1.8768934240362811,2.4419029590653188e-05
1.8812925170068027,2.5239952781345516e-05
1.8856916099773242,2.62121874585704e-05
1.8900680272108843,2.7325621173427105e-05
1.8944671201814058,2.856515680513556e-05
1.898843537414966,2.991282473761449e-05
1.9032426303854875,3.136113415857962e-05
1.9076190476190475,3.2896933411877614e-05
1.9119954648526079,3.4506636034131685e-05
1.916371882086168,3.6180458328318165e-05
1.920748299319728,3.790817969364052e-05
1.9251020408163266,3.968786779826347e-05
1.9294784580498867,4.1507581199945424e-05
1.9338548752834468,4.335333510275088e-05
1.9382086167800454,4.523772582999245e-05
1.942562358276644,4.713299817691586e-05
1.9469387755102041,4.9054320601835514e-05
1.9512925170068027,5.0982544172005065e-05
1.9556689342403628,5.291234684934982e-05
1.9600226757369614,5.485669293171705e-05
1.96437641723356,5.679595929978394e-05
1.9687301587301587,5.8727229058025404e-05
1.9730839002267575,6.0647566808474095e-05
1.9774603174603176,6.255954675348561e-05
1.9818140589569162,6.445939117125847e-05
1.9861678004535148,6.63387447425258e-05
1.9905215419501134,6.819464160141034e-05
1.994875283446712,7.00241073560212e-05
1.9992290249433107,7.182416153005009e-05
2.0035827664399095,7.359182030642806e-05
2.007936507936508,7.532409960265924e-05
2.0122902494331067,7.701801850423112e-05
2.016643990929705,7.867060307897407e-05
2.020997732426304,8.027889059141788e-05
2.0253514739229024,8.18399341322335e-05
2.0297278911564627,8.335275506673071e-05
2.034081632653061,8.481321973008931e-05
2.03843537414966,8.62175025349057e-05
2.0427891156462588,8.756280987778778e-05
2.047142857142857,8.884639391292186e-05
2.051496598639456,9.006555972481069e-05
2.0558503401360544,9.121767288402154e-05
2.0602040816326532,9.230016735908958e-05
2.0645578231292516,9.331055375222125e-05
2.0689115646258505,9.424642782115901e-05
2.073265306122449,9.51054792444534e-05
2.0776190476190477,9.588550058259636e-05
2.081972789115646,9.65843963832473e-05
2.086326530612245,9.72001923747748e-05
2.0906802721088438,9.773104468914516e-05
2.095034013605442,9.817524905245005e-05
2.099387755102041,9.85312498791248e-05
2.1037414965986394,9.879764920424712e-05
2.1080952380952382,9.897321538695254e-05
2.1124489795918366,9.905689151730232e-05
2.1168027210884355,9.904780345864063e-05
2.121156462585034,9.894526745790226e-05
2.1255102040816327,9.874879725730261e-05
2.1298639455782316,9.845811064242335e-05
2.13421768707483,9.807313536402389e-05
2.138571428571429,9.759401437356094e-05
2.142925170068027,9.702111031572761e-05
2.147278911564626,9.635500922500894e-05
2.151655328798186,9.559900722219503e-05
2.1560090702947847,9.475987706679731e-05
2.160362811791383,9.383152745487945e-05
2.164716553287982,9.281547927884952e-05
2.1690702947845804,9.171347907664306e-05
2.173424036281179,9.052749689836346e-05
2.177777777777778,8.925972315213188e-05
2.182154195011338,8.791461313561505e-05
2.1865079365079367,8.650926319470859e-05
2.190861678004535,8.503099055218295e-05
2.195215419501134,8.348281019647259e-05
2.1995691609977324,8.186792216164756e-05
2.2039455782312927,8.020916927212884e-05
2.208299319727891,7.849662688542874e-05
2.21265306122449,7.672900391075998e-05
2.2170294784580498,7.492907680340976e-05
