time,potential
0.09204081632653062,7.731326333553908e-27
0.09351473922902495,1.2474057448490839e-24
0.09501133786848073,3.344566311186549e-23
0.09657596371882086,4.024439036111105e-22
0.09816326530612245,2.9703917404432867e-21
0.09977324263038549,1.567596481969407e-20
0.10138321995464852,6.487182458983986e-20
0.10301587301587302,2.230321542175839e-19
0.10464852607709751,6.634318200528174e-19
0.10630385487528345,1.760803220616755e-18
0.10793650793650794,4.24568873329317e-18
0.10959183673469387,9.470677575041271e-18
0.11124716553287982,1.972067195040137e-17
0.11290249433106576,3.871275004166498e-17
0.11453514739229025,7.237755638828735e-17
0.11619047619047619,1.2980375212377005e-16
0.11784580498866214,2.248189832573706e-16
0.11950113378684807,3.784865588840782e-16
0.12113378684807256,6.23957558007265e-16
0.12278911564625851,1.0117231996833406e-15
0.12444444444444444,1.6206155988337925e-15
0.12607709750566895,2.5808070840075723e-15
0.12773242630385487,4.096486654275267e-15
0.1293877551020408,6.4913362823297604e-15
0.1310204081632653,1.0296434732618738e-14
0.13267573696145124,1.632050842788196e-14
0.13433106575963719,2.5809078305468492e-14
0.13598639455782313,4.065028503651236e-14
0.13764172335600908,6.364722112934124e-14
0.13929705215419502,9.888449663420806e-14
0.1409750566893424,1.5222733332800606e-13
0.14263038548752835,2.32338232096557e-13
0.1442857142857143,3.506788385312545e-13
0.14594104308390024,5.230975314248083e-13
0.14761904761904762,7.728700026321917e-13
0.14927437641723357,1.1282820674802215e-12
0.15095238095238095,1.628932466628273e-12
0.1526077097505669,2.3281188829940093e-12
0.15426303854875284,3.2884521834676923e-12
0.15594104308390022,4.604870676683417e-12
0.15759637188208617,6.378131381959514e-12
0.15927437641723358,8.754016030331277e-12
0.1609297052154195,1.190658263161224e-11
0.1626077097505669,1.6041240027597054e-11
0.16426303854875285,2.145621084189257e-11
0.16591836734693877,2.843064407698171e-11
0.16759637188208618,3.7431547709411614e-11
0.16925170068027212,4.887706515241305e-11
0.1709297052154195,6.338889448307597e-11
0.17258503401360545,8.166959735476286e-11
0.17426303854875283,1.0446185430910641e-10
0.17591836734693878,1.3294785437145306e-10
0.17757369614512472,1.6796704022970261e-10
0.1792517006802721,2.1129979206677989e-10
0.18090702947845805,2.640994459062241e-10
0.18258503401360546,3.2851272874865823e-10
0.18424036281179137,4.065609846794307e-10
0.18591836734693878,5.004885211832415e-10
0.18757369614512473,6.137794745402549e-10
0.1892517006802721,7.483441283877896e-10
0.19090702947845806,9.100570249467046e-10
0.192562358276644,1.1005450515394364e-09
0.19424036281179138,1.3270004970744096e-09
0.19589569160997733,1.592772796579233e-09
0.1975736961451247,1.9051947283057326e-09
0.19922902494331066,2.2709021367898792e-09
0.20090702947845807,2.6961409085102348e-09
0.20256235827664398,3.1929187900075323e-09
0.2042403628117914,3.764482166029966e-09
0.20589569160997734,4.43125263274142e-09
0.20755102040816326,5.192518271208469e-09
0.20922902494331067,6.075491999031967e-09
0.2108843537414966,7.0803833324186336e-09
0.212562358276644,8.235439414271173e-09
0.21421768707482994,9.54848719035681e-09
0.21589569160997732,1.1044527458852424e-08
0.21755102040816326,1.2743910607988452e-08
0.21922902494331067,1.4663611891171258e-08
0.2208843537414966,1.6843319162879022e-08
0.222562358276644,1.928515734886004e-08
0.22421768707482995,2.205736923199172e-08
0.22589569160997733,2.5137828876856585e-08
0.22755102040816327,2.8635526118841092e-08
0.22920634920634922,3.250099700465167e-08
0.2308843537414966,3.687130361588451e-08
0.23253968253968255,4.169290911961548e-08
0.23421768707482993,4.7107931470502445e-08
0.23587301587301587,5.308026552177802e-08
0.23755102040816328,5.974445409557545e-08
0.2392063492063492,6.709320411010542e-08
0.2408843537414966,7.524226050211581e-08
0.24253968253968256,8.422775370113018e-08
0.24421768707482994,9.413204187409165e-08
0.24587301587301588,1.0505300530477906e-07
0.24755102040816326,1.1702116947398797e-07
0.2492063492063492,1.3021869591581122e-07
0.2508843537414966,1.4460148170547565e-07
0.25253968253968256,1.604631913677448e-07
0.25421768707482995,1.7765746521538074e-07
0.25587301587301586,1.966218508584183e-07
0.25755102040816324,2.170748109280013e-07
0.2592063492063492,2.396357517924877e-07
0.2608843537414966,2.6384932190081975e-07
0.2625396825396825,2.9056074962003235e-07
0.26421768707482995,3.1909614589040245e-07
0.26587301587301587,3.505768433962461e-07
0.26755102040816325,3.840593015431445e-07
0.2692063492063492,4.2099781388302807e-07
0.27086167800453514,4.601562675769984e-07
0.2725396825396825,5.032810972265917e-07
0.2741950113378685,5.489187180493344e-07
0.2758730158730159,5.99037853628665e-07
0.2775283446712018,6.520142309308707e-07
0.27920634920634924,7.100431869591193e-07
0.28086167800453515,7.713019582151791e-07
0.28253968253968254,8.38246467930116e-07
0.2841950113378685,9.088200733618919e-07
0.2858730158730159,9.857817102914226e-07
0.2875283446712018,1.0667960902134677e-06
0.2892063492063492,1.1549779465090266e-06
0.29086167800453516,1.2476571497300658e-06
0.29253968253968254,1.3483695465523285e-06
0.29419501133786846,1.4540402171441731e-06
0.2958730158730159,1.5687064207732137e-06
0.2975283446712018,1.688802129666284e-06
0.2992063492063492,1.818964045473781e-06
0.30086167800453517,1.9550294326846097e-06
0.30253968253968255,2.1023532476798065e-06
0.30419501133786847,2.256047940526245e-06
0.30587301587301585,2.4223296838770385e-06
0.3075283446712018,2.5954319562935313e-06
0.3092063492063492,2.7826029460466424e-06
0.3108616780045352,2.977013084090251e-06
0.31253968253968256,3.187145227306039e-06
0.3141950113378685,3.4048885661646315e-06
0.31587301587301586,3.6401994788600534e-06
0.31752834467120183,3.883429077121152e-06
0.3192063492063492,4.14628698976452e-06
0.32086167800453513,4.4172859073653e-06
0.32253968253968257,4.71021432119662e-06
0.3241950113378685,5.011397468352768e-06
0.32587301587301587,5.337079527517946e-06
0.32752834467120184,5.670995053019965e-06
0.3292063492063492,6.0322775974077945e-06
0.33086167800453514,6.4016077859737715e-06
0.3325396825396825,6.8015050497198925e-06
0.33421768707482996,7.209240426844395e-06
0.3358730158730159,7.650763620444907e-06
0.33755102040816326,8.100413005004037e-06
0.33920634920634923,8.586362979238315e-06
0.3408843537414966,9.081219797962703e-06
0.34253968253968253,9.614922416394858e-06
0.3442176870748299,1.0158445677409479e-05
0.3458730158730159,1.0743371443918147e-05
0.34755102040816327,1.1339186877106908e-05
0.3492063492063492,1.1978949257440974e-05
0.3508843537414966,1.2630849914978613e-05
0.35253968253968254,1.3329203009217805e-05
0.3542176870748299,1.4041149297613392e-05
0.3558730158730159,1.4801984846218696e-05
0.3575510204081633,1.557810396265411e-05
0.3592063492063492,1.6405447671511453e-05
0.36088435374149663,1.725003241889042e-05
0.36253968253968255,1.8148039591627787e-05
0.36421768707482993,1.9065546548573795e-05
0.3658730158730159,2.0038497017455394e-05
0.3675510204081633,2.1033544041511165e-05
0.3692063492063492,2.2085836391369642e-05
0.3708843537414966,2.3163199435876686e-05
0.37253968253968256,2.429934451883527e-05
0.37421768707482994,2.5463953746451238e-05
0.37587301587301586,2.668856748865464e-05
0.3775510204081633,2.7945502667234074e-05
0.3792063492063492,2.9263298172415534e-05
0.3808843537414966,3.061778334198727e-05
0.38253968253968257,3.203356230039799e-05
0.38421768707482995,3.349095970314247e-05
0.38587301587301587,3.5009603118046624e-05
0.38755102040816325,3.657540638636705e-05
0.3892063492063492,3.820186463388472e-05
0.3908843537414966,3.988169123484959e-05
0.3925396825396825,4.1620973476353426e-05
0.39421768707482996,4.34205564139048e-05
0.3958730158730159,4.527771938347523e-05
0.39755102040816326,4.7202898162962644e-05
0.39920634920634923,4.918303435559042e-05
0.4008843537414966,5.123974521840372e-05
0.40253968253968253,5.3347970507753876e-05
0.40421768707482997,5.554223594721411e-05
0.4058730158730159,5.778367666480752e-05
0.40755102040816327,6.0121594237949804e-05
0.40920634920634924,6.25013737485812e-05
0.4108843537414966,6.498910420208079e-05
0.41253968253968254,6.751232901308735e-05
0.4142176870748299,7.015608374522528e-05
0.4158730158730159,7.282782918984488e-05
0.4175510204081633,7.563385707402622e-05
0.4192063492063492,7.845915261140272e-05
0.42088435374149663,8.143372621024705e-05
0.42253968253968255,8.441754038664787e-05
0.42421768707482993,8.75669415889416e-05
0.4258730158730159,9.071416670627866e-05
0.4275510204081633,9.404467182215163e-05
0.4292063492063492,9.736010836119434e-05
0.4308843537414966,0.00010087797271389424
0.43253968253968256,0.0001043663135605485
0.43421768707482994,0.00010807775561619468
0.43587301587301586,0.00011174357014003884
0.4375510204081633,0.00011565475521964062
0.4392063492063492,0.00011950247325441689
0.4408843537414966,0.0001236194968752895
0.44253968253968257,0.0001276533926513409
0.44421768707482995,0.00013198226354779193
0.44587301587301587,0.00013620643962645502
0.44755102040816325,0.00014075306250228392
0.4492063492063492,0.00014517143376209038
0.4508843537414966,0.00014994159182991646
0.4525396825396826,0.00015455786955398594
0.45421768707482996,0.00015955720691885136
0.45589569160997734,0.00016438060768513257
0.45755102040816326,0.00016960888697924991
0.4592290249433107,0.00017465141775509005
0.4608843537414966,0.0001801052017321165
0.462562358276644,0.00018537127813443642
0.46421768707482997,0.00019105427837284283
0.46589569160997735,0.00019654809979260024
0.46755102040816326,0.00020246376892064965
0.46922902494331065,0.00020818930182047162
0.4708843537414966,0.00021434081806497856
0.472562358276644,0.00022030177953610288
0.4742176870748299,0.00022669203161907475
0.47589569160997736,0.00023289187326451999
0.4775510204081633,0.00023952344568968883
0.47922902494331066,0.00024596533790068444
0.48088435374149663,0.0002528404966700515
0.482562358276644,0.00025952731336241426
0.48421768707482993,0.0002666479921610188
0.4858956916099773,0.0002735822960376972
0.4875510204081633,0.00028095008292280206
0.48922902494331066,0.0002881341113278565
0.4908843537414966,0.00029575023595662474
0.492562358276644,0.000303185887384761
0.49421768707482994,0.0003110512088124575
0.4958956916099773,0.0003187400301367716
0.4975510204081633,0.0003268550252152451
0.4992290249433107,0.00033479819969402084
0.5008843537414966,0.0003431629520981744
0.502562358276644,0.0003513612882195434
0.50421768707483,0.0003599754781271906
0.5058956916099774,0.00036842939934805867
0.5075510204081632,0.0003772922937964402
0.5092290249433107,0.00038600182922947796
0.5108843537414967,0.000395112273169454
0.512562358276644,0.00040407704926892377
0.51421768707483,0.00041343345733567264
0.5158956916099773,0.00042265269062973106
0.5175510204081633,0.0004322530396465131
0.5192290249433107,0.00044172553056013577
0.5208843537414967,0.0004515673527896064
0.522562358276644,0.0004612914805986435
0.52421768707483,0.0004713718577540875
0.5258956916099773,0.0004813455767072558
0.5275510204081633,0.000491661134734096
0.5292290249433107,0.0005018819713757194
0.5308843537414966,0.0005124288760118767
0.532562358276644,0.0005228939277342546
0.53421768707483,0.000533667880856039
0.5358956916099773,0.0005443738157062102
0.5375510204081633,0.0005553700524648945
0.5392290249433107,0.0005663131102263023
0.5408843537414966,0.0005775263969788335
0.542562358276644,0.0005887023915441275
0.54421768707483,0.0006001270245799319
0.5458956916099773,0.0006115313476267326
0.5475510204081633,0.0006231611526913226
0.5492290249433107,0.0006347887786682767
0.5508843537414966,0.0006466171112828762
0.552562358276644,0.0006584626037089577
0.55421768707483,0.0006704823502842848
0.5558956916099773,0.0006825398693596129
0.5575510204081633,0.0006947434491009238
0.5592290249433106,0.000707006760622949
0.5608843537414966,0.0007193861282222941
0.562562358276644,0.0007318486137966298
0.56421768707483,0.0007443952629074267
0.5658956916099773,0.0007570499314380472
0.5675510204081633,0.0007697548989263322
0.5692290249433106,0.0007825943993655595
0.5708843537414966,0.0007954482703314746
0.572562358276644,0.0008084649056656417
0.5742176870748299,0.0008214578192279436
0.5758956916099773,0.0008346435616705257
0.5775510204081633,0.0008477652175065536
0.5792290249433106,0.0008611117248661666
0.5808843537414966,0.0008743513904989273
0.582562358276644,0.0008878500236857117
0.5842176870748299,0.0009011965425092822
0.5858956916099773,0.0009148383841391458
0.5875510204081633,0.0009282801841733063
0.5892290249433106,0.0009420560582256461
0.5908843537414966,0.0009555811615899513
0.592562358276644,0.0009694816540708198
0.5942176870748299,0.0009830776871681056
0.5958956916099774,0.0009970931677270557
0.5975510204081633,0.0010107473721257115
0.5992290249433107,0.001024868016571226
0.6008843537414966,0.0010385672605753887
0.602562358276644,0.001052783074230273
0.6042176870748299,0.0010665138651264443
0.6058956916099774,0.0010808147069613948
0.6075510204081632,0.001094563203929342
0.6092290249433107,0.0011089388114098088
0.6108843537414966,0.001122690839085441
0.612562358276644,0.001137130853663819
0.6142176870748299,0.0011508719163405403
0.6158956916099774,0.001165365909522697
0.6175510204081632,0.001179081205977301
0.6192290249433107,0.0011936187058899518
0.6208843537414966,0.0012072931448182402
0.622562358276644,0.0012218636632008177
0.6242176870748299,0.001235481879247231
0.6258956916099774,0.001250074938789822
0.6275510204081632,0.0012636213091545404
0.6292290249433107,0.0012782264711010624
0.6308843537414967,0.0012916851327070581
0.632562358276644,0.0013062920246412982
0.63421768707483,0.0013196468918430485
0.6358956916099774,0.001334245235573302
0.6375510204081632,0.0013474800183877146
0.6392290249433107,0.001362059657844599
0.6408843537414967,0.001375157880683923
0.642562358276644,0.0013897088097449023
0.64421768707483,0.0014026538306304904
0.6458956916099773,0.0014171662207841725
0.6475510204081633,0.0014299412510188352
0.6492290249433107,0.0014444054787811627
0.6508843537414966,0.0014569936030572614
0.652562358276644,0.0014714002770525182
0.65421768707483,0.0014837844739717262
0.6558956916099773,0.001498124461590976
0.6575510204081633,0.0015102876245714101
0.6592290249433107,0.0015245520781222066
0.6608843537414966,0.0015364770366672346
0.662562358276644,0.0015506574189290971
0.66421768707483,0.0015623269602319356
0.6658956916099773,0.001576415069333636
0.6675510204081633,0.001587811960190513
0.6692290249433107,0.0016017999537259245
0.6708843537414966,0.0016129069627294642
0.672562358276644,0.0016267873810303574
0.6742403628117914,0.0016376680095105478
0.6758956916099773,0.0016513530894997944
0.6775736961451247,0.0016620739118325307
0.6792290249433107,0.0016754732907289316
0.680907029478458,0.0016860288275943017
0.682562358276644,0.001699124712779997
0.6842403628117913,0.001709509982277178
0.6858956916099773,0.0017222846423147235
0.6875736961451248,0.0017324951770866992
0.6892290249433106,0.0017449309656294258
0.6909070294784581,0.0017549628286506072
0.692562358276644,0.00176704220849152
0.6942403628117914,0.0017768920074561008
0.6958956916099773,0.0017885975746792723
0.6975736961451248,0.001798262474931837
0.6992290249433106,0.0018095769831292493
0.7009070294784581,0.0018190547190832203
0.702562358276644,0.0018299611035997104
0.7042403628117914,0.0018392499885935933
0.7058956916099773,0.001849731390761967
0.7075736961451248,0.0018588303253080168
0.7092290249433106,0.0018688701166360553
0.7109070294784581,0.0018777785950206448
0.712562358276644,0.0018873604012915612
0.7142403628117914,0.0018960785164918192
0.7158956916099773,0.0019051862417395987
0.7175736961451248,0.0019137146886256666
0.7192290249433106,0.001922332538946522
0.7209070294784581,0.001930672615744564
0.7225623582766441,0.0019387851229063723
0.7242403628117914,0.0019469387309026963
0.7258956916099774,0.0019545307757137726
0.7275736961451247,0.0019625004171863127
0.7292290249433107,0.001969557252585924
0.7309070294784581,0.0019773460269547224
0.732562358276644,0.00198385330078773
0.7342403628117914,0.0019914648989823105
0.7358956916099774,0.0019974086764209835
0.7375736961451247,0.0020048473734679243
0.7392290249433107,0.0020102141590447294
0.7409070294784581,0.0020174848048852053
0.742562358276644,0.0020222615641008867
0.7442403628117914,0.0020293695726531272
0.7458956916099774,0.0020335437531254336
0.7475736961451247,0.0020404950896140747
0.7492290249433107,0.002044054641733321
0.7509070294784581,0.0020508558083121254
0.7525850340136054,0.002053953098551052
0.7542403628117914,0.0020604472250720677
0.7559183673469388,0.0020633928800310917
0.7575736961451247,0.002069265881885269
0.7592517006802721,0.002072069064259479
0.7609070294784581,0.0020773093661154516
0.7625850340136054,0.0020799797058933707
0.7642403628117914,0.0020845763080431594
0.7659183673469387,0.0020871238788252792
0.7675736961451247,0.002091066376273896
0.7692517006802722,0.0020935016701632233
0.770907029478458,0.0020967802710406083
0.7725850340136055,0.002099114172170538
0.7742403628117914,0.002101719715436404
0.7759183673469388,0.0021039634722048563
0.7775736961451247,0.0021058874446184895
0.7792517006802722,0.002108052640701723
0.780907029478458,0.002109287193029822
0.7825850340136055,0.002111385717251829
0.7842403628117914,0.0021119236796888073
0.7859183673469388,0.0021139676948260244
0.7875736961451247,0.0021138025916024863
0.7892517006802722,0.002115804502205875
0.790907029478458,0.002114930565362606
0.7925850340136055,0.0021169029846822146
0.7942403628117914,0.002115315166988686
0.7959183673469388,0.002117270883087398
0.7975963718820862,0.0021155372490444515
0.7992517006802721,0.0021169168112313863
0.8009297052154195,0.0021151913243709604
0.8025850340136055,0.002115850231814675
0.8042630385487528,0.0021141470818692846
0.8059183673469388,0.00211408143089563
0.8075963718820862,0.0021124148277774065
0.8092517006802721,0.0021116214909918767
0.8109297052154195,0.0021100056271058077
0.8125850340136055,0.0021084822628997303
0.8142630385487528,0.0021069312752340728
0.8159183673469388,0.0021046763363179602
0.8175963718820862,0.0021032042684096352
0.8192517006802721,0.0021002170093655796
0.8209297052154195,0.0020988377732384955
0.8225850340136055,0.002095118257085427
0.8242630385487528,0.0020938455952595834
0.8259183673469388,0.0020893946990282212
0.8275963718820862,0.002088242146696889
0.8292743764172336,0.0020835641443210868
0.8309297052154195,0.002082042413485751
0.8326077097505669,0.0020775187683824328
0.8342630385487528,0.002075261921670135
0.8359410430839003,0.0020709062433484867
0.8375963718820861,0.0020679167032698707
0.8392743764172336,0.0020637422250674125
0.8409297052154195,0.002060023261717351
0.8426077097505669,0.0020560428045014417
0.8442630385487528,0.0020515985369637256
0.8459410430839003,0.0020478244736057177
0.8475963718820861,0.002042659870354493
0.8492743764172336,0.0020391040910658466
0.8509297052154196,0.0020332249693746167
0.8526077097505669,0.0020298988479912883
0.8542630385487529,0.002023311872362172
0.8559410430839003,0.0020202262336614127
0.8576190476190476,0.002013823646452442
0.8592743764172336,0.002010104001419133
0.860952380952381,0.002003976144590493
0.8626077097505669,0.001999550134805981
0.8642857142857143,0.0019937067231145275
0.8659410430839003,0.0019885828140298258
0.8676190476190476,0.0019830328691201574
0.8692743764172336,0.0019772203828546213
0.8709523809523809,0.0019719722064936345
0.8726077097505669,0.001965481315998617
0.8742857142857143,0.001960542464819349
0.8759410430839002,0.0019533841871247006
0.8776190476190476,0.0019487614489395605
0.8792970521541951,0.001940996576385325
0.8809523809523809,0.001936647009242666
0.8826303854875284,0.0019292273604170722
0.8842857142857143,0.0019242170127523794
0.8859637188208617,0.0019171475040752558
0.8876190476190476,0.0019114893150865581
0.8892970521541951,0.0019047739902106375
0.8909523809523809,0.001898481733349499
0.8926303854875284,0.0018921237479228334
0.8942857142857144,0.0018852120200176855
0.8959637188208617,0.0018792136283195394
