time,potential
0.09421768707482993,1.0929747590561223e-21
0.09802721088435375,1.7551741684264982e-19
0.10195011337868481,4.6513735247020764e-18
0.10600907029478458,5.515311625435038e-17
0.11015873015873016,3.996682111671973e-16
0.11435374149659865,2.0720756847939112e-15
0.11859410430839003,8.435512209820922e-15
0.12285714285714286,2.859442724524081e-14
0.12714285714285714,8.394615421378052e-14
0.1314512471655329,2.194783809349372e-13
0.13575963718820863,5.218564929037705e-13
0.14006802721088435,1.1465479476408973e-12
0.14439909297052156,2.357437055064817e-12
0.14873015873015874,4.582136781726463e-12
0.15306122448979592,8.488886899221408e-12
0.15741496598639457,1.5096794275942663e-11
0.1617687074829932,2.590882735625409e-11
0.1660997732426304,4.31260266529954e-11
0.17045351473922904,6.989546705507944e-11
0.17480725623582766,1.1066586031403756e-10
0.1791609977324263,1.7166010543751077e-10
0.18351473922902495,2.614867833279527e-10
0.1878684807256236,3.9193880638097115e-10
0.19222222222222224,5.790207029793391e-10
0.19657596371882086,8.442540590529649e-10
0.2009297052154195,1.2163159544146738e-09
0.20528344671201815,1.7330701204028488e-09
0.2096371882086168,2.444054627154426e-09
0.2139909297052154,3.413493019921445e-09
0.21834467120181406,4.723897904517235e-09
0.2226984126984127,6.4803368198902475e-09
0.22705215419501135,8.815429636403135e-09
0.23140589569161,1.1895144502305599e-08
0.2357596371882086,1.5925455493597328e-08
0.24011337868480725,2.115991964835284e-08
0.2444671201814059,2.790822396642247e-08
0.24882086167800455,3.6545743982833825e-08
0.25317460317460316,4.752414462571881e-08
0.2575056689342404,6.138636739069932e-08
0.261859410430839,7.878305814776988e-08
0.26621315192743766,1.0046545587352732e-07
0.2705668934240363,1.2732146937426809e-07
0.2749206349206349,1.6038512751268874e-07
0.2792517006802721,2.008721668743606e-07
0.2836054421768708,2.5018885018642655e-07
0.2879591836734694,3.0989690539056285e-07
0.292312925170068,3.8180181995907224e-07
0.2966439909297052,4.6795914769139095e-07
0.30099773242630384,5.708056942312358e-07
0.3053514739229025,6.928543690248255e-07
0.30970521541950113,8.370129792715678e-07
0.3140589569160998,1.006515511257156e-06
0.31839002267573696,1.2052442255926113e-06
0.32274376417233563,1.4369801933221783e-06
0.32709750566893425,1.7060753744044287e-06
0.33145124716553287,2.0173051191803077e-06
0.3357823129251701,2.3764063289453187e-06
0.3401360544217687,2.7887853100022465e-06
0.34448979591836737,3.2605247798540847e-06
0.348843537414966,3.798266086207169e-06
0.3531746031746032,4.409974913790117e-06
0.3575283446712018,5.103081523017451e-06
0.3618820861678005,5.885544947522914e-06
0.3662358276643991,6.766122008604191e-06
0.3705668934240363,7.755162013374836e-06
0.37492063492063493,8.862773535014679e-06
0.37927437641723355,1.0098617800843963e-05
0.3836281179138322,1.1473695209164586e-05
0.3879591836734694,1.3000436022596315e-05
0.39231292517006805,1.4692892931910996e-05
0.39666666666666667,1.656168577750258e-05
0.40102040816326534,1.8620023634986395e-05
0.40537414965986396,2.0881604190858496e-05
0.40970521541950117,2.3366031834370097e-05
0.4140589569160998,2.6084057959834404e-05
0.4184126984126984,2.9050594744986666e-05
0.4227664399092971,3.2281216642324216e-05
0.42709750566893423,3.579674899707447e-05
0.4314512471655329,3.961377448923586e-05
0.4358049886621315,4.374556786842033e-05
0.4401587301587302,4.8209077016880644e-05
0.44448979591836735,5.3023194204290125e-05
0.448843537414966,5.821587352352586e-05
0.45319727891156464,6.379464067993786e-05
0.45755102040816326,6.977709489272484e-05
0.46190476190476193,7.618078617952543e-05
0.4662358276643991,8.303693754138946e-05
0.47058956916099776,9.035819230906656e-05
0.4749433106575964,9.815617375399086e-05
0.47929705215419505,0.00010644788841221098
0.4836281179138322,0.00011525637262475574
0.4879818594104309,0.0001246154360559316
0.4923356009070295,0.00013452135082502704
0.4966893424036281,0.0001449894586062233
0.5010430839002268,0.00015603439096308045
0.5053741496598639,0.00016770144715184932
0.5097278911564626,0.00017998643754523136
0.5140816326530613,0.0001928934364812475
0.5184353741496599,0.00020643387040619594
0.522766439909297,0.00022063600539313808
0.5271201814058957,0.00023553135056608628
0.5314739229024943,0.0002510950505926294
0.535827664399093,0.0002673340917937553
0.5401814058956916,0.00028425403414655484
0.5445124716553288,0.0003019262093347904
0.5488662131519274,0.0003203007809985799
0.5532199546485261,0.00033937322662991646
0.5575736961451248,0.0003591432324155138
0.5619047619047619,0.0003796569337900933
0.5662585034013605,0.0004009150691892486
0.5706122448979591,0.00042287005687872834
0.5749659863945579,0.0004455147669462535
0.579297052154195,0.00046885745851822896
0.5836507936507936,0.0004929749436308623
0.5880045351473923,0.0005177613388003744
0.592358276643991,0.0005432020187425941
0.5967120181405896,0.0005692802828913967
0.6010430839002268,0.0005960976945072535
0.6053968253968254,0.0006235534506041206
0.609750566893424,0.0006515985382502166
0.6141043083900227,0.0006802083980515125
0.6184353741496599,0.0007094462926915411
0.6227891156462585,0.0007392928520673827
0.6271428571428571,0.0007696337802333991
0.6314965986394558,0.0008004368090218859
0.635827664399093,0.0008317164082423527
0.6401814058956916,0.0008635589484305662
0.6445351473922902,0.000895771967619029
0.6488888888888888,0.0009283160613348673
0.6532426303854876,0.0009611501030102312
0.6575736961451247,0.0009944816607062917
0.6619274376417233,0.0010280360202386152
0.666281179138322,0.0010617652079652816
0.6706349206349207,0.0010956222921164223
0.6749659863945578,0.0011297844449573758
0.6793197278911565,0.0011640568735759953
0.6836734693877551,0.0011983273455861713
0.6880272108843537,0.0012325445970123889
0.692358276643991,0.00126685180768031
0.6967120181405896,0.001301146804167999
0.7010657596371882,0.0013352485599933057
0.7054195011337868,0.0013691032606575873
0.7097505668934241,0.0014028186873987654
0.7141043083900227,0.001436393725225833
0.7184580498866213,0.0014695768481964746
0.7228117913832199,0.0015023136928244826
0.7271428571428572,0.0015346775448260399
0.7314965986394558,0.0015667719424815763
0.7358503401360544,0.0015982761740047614
0.740204081632653,0.0016291374431980944
0.7445351473922903,0.0016593977472838702
0.7488888888888889,0.001689263693112308
0.7532426303854876,0.0017183497450171123
0.7575963718820862,0.0017466067915509645
0.7619274376417233,0.001774050976370489
0.766281179138322,0.0018009850474728676
0.7706349206349207,0.001826965971012997
0.7749886621315193,0.001851950324250809
0.7793197278911564,0.0018759359816276004
0.7836734693877552,0.001899309457869877
0.7880272108843538,0.0019215803764891513
0.7923809523809524,0.0019427127850796505
0.7967120181405896,0.001962696017543008
0.8010657596371882,0.001981982356213936
0.8054195011337869,0.0020000469606657606
0.8097732426303855,0.0020168628124728155
0.8141043083900227,0.002032422719353319
0.8184580498866213,0.002047220725203255
0.82281179138322,0.0020607131258631624
0.8271655328798186,0.002072882906582441
0.8314965986394558,0.0020837409937254914
0.8358503401360544,0.002093792485412662
0.840204081632653,0.0021024933040835864
0.8445578231292518,0.002109837062064141
0.8488888888888889,0.002115870656056187
0.8532426303854875,0.002121071761251966
0.8575963718820862,0.002124917686420087
0.8619501133786849,0.002127412820713086
0.866281179138322,0.00212866188868695
0.8706349206349207,0.0021290674565319656
0.8749886621315193,0.0021281538452765903
0.8793424036281179,0.002125935895025197
0.8836734693877552,0.0021226029929435953
0.8880272108843538,0.0021184239743526033
0.8923809523809524,0.0021130004463565653
0.896734693877551,0.0021063569215151495
0.9010657596371883,0.002098800312810437
0.9054195011337869,0.0020903943176715893
0.9097732426303855,0.0020808536419912585
0.9141269841269841,0.0020702112858693514
0.9184580498866214,0.002058931579699652
0.92281179138322,0.002046787159087057
0.9271655328798186,0.002033648064429666
0.9314965986394558,0.0020195851186532963
0.9358503401360544,0.002005175195885225
0.9402040816326531,0.0019898906931353
0.9445578231292517,0.001973775512149186
0.9488888888888889,0.001957163571325103
0.9532426303854875,0.0019401190464002343
0.9575963718820862,0.001922377092548259
0.9619274376417234,0.001903999458947233
0.966281179138322,0.0018856053842296933
0.9706349206349206,0.001866653255396682
0.9749886621315192,0.0018471921491667374
0.9793197278911565,0.0018276848260237548
0.9836734693877551,0.001807951531292142
0.9880272108843537,0.0017878518870100446
0.9923582766439909,0.0017677245171615046
0.9967120181405896,0.0017476416947849458
1.0010657596371881,0.0017273337871586594
1.0053968253968255,0.0017070922576301042
1.0097505668934241,0.0016870844422572813
1.0141043083900227,0.0016669883358798282
1.01843537414966,0.0016471253829781545
1.0227891156462585,0.0016276005682884513
1.0271428571428571,0.0016081168454537527
1.0314739229024943,0.0015891006905475265
1.035827664399093,0.0015704414272223227
1.0401814058956915,0.0015519425243261781
1.044512471655329,0.0015342061851717503
1.0488662131519275,0.001516761440856116
1.0531972789115647,0.0014997658714891826
1.0575510204081633,0.0014835153761562389
1.061904761904762,0.0014675933634680101
1.066235827664399,0.001452512724709837
1.0705895691609977,0.0014379647906010951
1.0749206349206348,0.001424025404266548
1.0792743764172337,0.0014109537175761623
1.0836281179138323,0.0013983352787360057
1.0879591836734694,0.001386775533770761
1.092312925170068,0.001375753561827233
1.0966439909297052,0.0013656033258662211
1.1009977324263038,0.0013562367683650003
1.105328798185941,0.0013475663898790812
1.1096825396825396,0.001339895727831131
1.1140362811791384,0.0013327691765216698
1.1183673469387756,0.0013267964758962283
1.1227210884353742,0.0013213945191334197
1.1270521541950114,0.0013169602194122853
1.13140589569161,0.0013132782883052794
1.1357369614512471,0.001310363909236509
1.1400907029478458,0.001308379587228317
1.144421768707483,0.0013069414081041159
1.1487755102040818,0.0013066151196876382
1.1531292517006804,0.0013068055105887786
1.1574603174603175,0.0013078611455415012
1.1618140589569161,0.0013096270232926426
1.1661451247165533,0.0013119559616248165
1.170498866213152,0.0013152200865630555
1.1748526077097505,0.0013189256960727447
1.1791836734693877,0.0013233747307170678
1.1835374149659865,0.0013284468375720792
1.1878911564625851,0.0013338997420294391
1.1922222222222223,0.001340182534714588
1.196575963718821,0.0013468469210236632
1.200907029478458,0.0013538570910223916
1.2052607709750567,0.0013616129802772553
1.2096145124716553,0.0013696256369762842
1.2139455782312925,0.0013778950685728187
1.218299319727891,0.0013868165646509201
1.22265306122449,0.0013959128331993169
1.2270068027210885,0.0014051571385388074
1.2313378684807257,0.0014148863387965609
1.2356916099773243,0.001424788829686116
1.240045351473923,0.001434752995436269
1.24437641723356,0.001444884188881314
1.2487301587301587,0.0014553107331287754
1.2530839002267573,0.0014657123235258132
1.257437641723356,0.001476061455122576
1.2617687074829933,0.0014865383903035934
1.266122448979592,0.001497100317402264
1.2704761904761905,0.0015075262283493793
1.2748299319727892,0.0015177900136868335
1.2791609977324263,0.001528016994027426
1.283514739229025,0.0015382601336655596
1.2878684807256235,0.001548264447943
1.2922222222222222,0.001558006413339043
1.2965759637188208,0.0015674632873433527
1.3009070294784582,0.001576955322631512
1.3052607709750568,0.0015861401642496026
1.3096145124716554,0.0015949761114280358
1.313968253968254,0.0016034442216589736
1.3182993197278912,0.001611586009806585
1.3226530612244898,0.0016196173469144462
1.3270068027210884,0.0016272302408746732
1.331360544217687,0.0016344102392461457
1.3357142857142856,0.001641144082330242
1.340045351473923,0.001647466356204404
1.3443990929705216,0.0016536171051449056
1.3487528344671202,0.0016592896055301735
1.3531065759637189,0.0016644755820331755
1.3574603174603175,0.0016691680328130621
1.361814058956916,0.0016733612343179964
1.3661451247165532,0.0016773663496646373
1.3704988662131519,0.001680891002067192
1.3748526077097505,0.0016839075225852632
1.3792063492063493,0.001686415209506933
1.383560090702948,0.0016884145927803258
1.387891156462585,0.0016901257768819542
1.3922448979591837,0.0016914585677719374
1.3965986394557823,0.0016922927096468842
1.400952380952381,0.0016926333557000899
1.4053061224489796,0.0016924867542624114
1.4096371882086167,0.0016919895411448764
1.4139909297052153,0.0016912399402049835
1.4183446712018142,0.0016900290828353618
1.4226984126984128,0.0016883671350618
1.4270521541950114,0.0016862651540137533
1.4313832199546486,0.0016838102078757821
1.4357369614512472,0.0016812208592212532
1.4400907029478458,0.001678230638481506
1.4444444444444444,0.0016748536038316754
1.448798185941043,0.0016711044585588394
1.4531292517006802,0.0016670762800118297
1.457482993197279,0.0016629951544582134
1.4618367346938776,0.00165859048739269
1.4661904761904763,0.001653878955319515
1.4705442176870749,0.00164887761672906
1.474875283446712,0.0016437572790528178
1.4792290249433107,0.001638605376710225
1.4835827664399093,0.0016332176462768842
1.487936507936508,0.0016276120719072036
1.4922902494331065,0.0016218067611097507
1.4966213151927439,0.0016161319160166371
1.5009750566893425,0.0016103694724034386
1.5053287981859411,0.001604462760318994
1.5096825396825397,0.0015984298219707599
1.514013605442177,0.0015924477429468792
1.5183673469387755,0.0015866136918648677
1.5227210884353741,0.0015807074479166623
1.5270748299319727,0.0015747462757854675
1.5314058956916101,0.0015688174729752615
1.5357596371882087,0.0015632039611533821
1.5401133786848074,0.0015575860533868658
1.544467120181406,0.001551979618763541
1.5487981859410431,0.0015464408456599037
1.5531519274376417,0.0015413179822724506
1.5575056689342404,0.0015362518701241348
1.561859410430839,0.0015312564709181137
1.5661904761904761,0.0015264076341440277
1.570544217687075,0.0015220141905463208
1.5748979591836736,0.0015177300737654542
1.5792517006802722,0.001513566936383462
1.5835827664399094,0.0015096604039020647
1.587936507936508,0.0015061964386307543
1.5922902494331066,0.0015028843379081202
1.5966439909297052,0.001499733147081099
1.6009750566893424,0.001496965653957613
1.605328798185941,0.0014945870568343208
1.6096825396825398,0.001492391777374577
1.6140362811791384,0.0014903860428508852
1.6183673469387756,0.0014888932018864913
1.6227210884353742,0.0014877079815235593
1.6270748299319728,0.001486725750489749
1.6314285714285715,0.0014859497743688437
1.6357596371882086,0.0014858030265775676
1.6401133786848072,0.0014858690587572997
1.6444671201814058,0.0014861455476667962
1.6487981859410432,0.001486722115123075
1.6531519274376418,0.0014878384544482275
1.6575056689342405,0.0014891624102997725
1.661859410430839,0.0014906918820776253
1.6661904761904762,0.0014925807566103153
1.6705442176870748,0.0014949246601844947
1.6748979591836735,0.0014974619294886506
1.679251700680272,0.0015001873646333548
1.6835827664399092,0.0015032831756265908
1.687936507936508,0.0015067718693225025
1.6922902494331067,0.0015104274527858706
1.6966439909297053,0.0015142416774319223
1.7009750566893425,0.00151838139663825
1.705328798185941,0.001522883276913188
1.7096825396825397,0.0015275138065439988
1.7140362811791383,0.0015322618274812504
1.7183673469387755,0.0015372306621325529
1.722721088435374,0.0015425683655688018
1.727074829931973,0.0015479855620410287
1.7314285714285715,0.0015534684408418419
1.7357596371882087,0.0015590075771181875
1.7401133786848073,0.0015649627410123659
1.744467120181406,0.0015709386589914953
1.7488208616780045,0.0015769192635801655
1.7531746031746032,0.0015828879671805976
1.7575056689342403,0.0015890555575787193
1.761859410430839,0.001595329859456544
1.7662131519274378,0.0016015406757040323
1.7705668934240364,0.0016076698566335219
1.7748979591836735,0.0016137249244590184
1.7792517006802722,0.0016200141483034346
1.7836054421768708,0.0016261670347097969
1.7879591836734694,0.0016321645605869176
1.792312925170068,0.0016379875802411397
1.7966439909297052,0.0016437890184284691
1.8009977324263038,0.001649586518881282
1.8053514739229026,0.0016551539005213607
1.8097052154195012,0.0016604721261172409
1.8140589569160999,0.0016655223036119865
1.818390022675737,0.0016705914085590066
1.8227437641723356,0.0016754363321755826
1.8270975056689343,0.0016799603893837773
1.8314512471655329,0.0016841458299762294
1.83578231292517,0.0016880303428162624
1.8401360544217686,0.0016918794189494854
1.8444897959183675,0.0016953420134927907
1.848843537414966,0.0016984023058046016
1.8531972789115647,0.0017010450877637691
1.8575283446712019,0.001703470830842133
1.8618820861678005,0.0017056387772091124
1.866235827664399,0.0017073504734890217
1.8705895691609977,0.001708593514378389
1.8749206349206349,0.0017093650573940411
1.8792743764172335,0.0017100499161765567
1.8836281179138323,0.0017102367289402725
1.887981859410431,0.0017099164327764494
1.8923356009070296,0.0017090809009911233
1.8966666666666667,0.0017079899992622867
1.9010204081632653,0.0017065308613916836
1.905374149659864,0.0017045405160147004
1.9097278911564626,0.0017020146171894276
1.9140589569160997,0.0016991173792082345
1.9184126984126983,0.0016959519298977964
1.9227664399092972,0.0016922464851360616
1.9271201814058958,0.0016880006065449359
1.931451247165533,0.0016833517487612702
1.9358049886621316,0.0016784829416817758
1.9401587301587302,0.0016730808526738165
1.9445124716553288,0.0016671488750021426
1.948843537414966,0.0016608798184275214
1.9531972789115646,0.0016543734862386138
1.9575510204081632,0.0016473554989659997
1.961904761904762,0.0016398328084772586
1.9662358276643992,0.0016321486673199293
1.9705895691609978,0.0016241300440313253
1.9749433106575964,0.0016156349753027432
1.9792743764172336,0.0016067579657746108
1.9836281179138322,0.0015978469798863704
1.9879818594104308,0.001588494375670857
1.9923356009070294,0.001578712134626946
1.9966666666666668,0.0015689513872687616
2.0010204081632654,0.0015588751195774603
2.005374149659864,0.0015484111330419097
2.009705215419501,0.001537948564010502
2.0140589569160996,0.0015272980361559026
2.0184126984126984,0.0015163056827540212
2.022743764172336,0.0015053920641523307
2.027097505668934,0.001494328330172928
2.031451247165533,0.0014829713614171267
2.03578231292517,0.001471870486739626
2.040136054421769,0.0014605621028170159
2.0444671201814058,0.0014491658492920675
2.0488208616780046,0.001437993372723356
2.0531746031746034,0.0014266121047478598
2.0575056689342404,0.0014155006208680496
2.061859410430839,0.001404376600725095
2.066190476190476,0.0013933173053599847
2.070544217687075,0.0013825358192746727
2.074875283446712,0.001371672102755478
2.0792290249433107,0.0013613158145679585
2.083582766439909,0.001350864344308097
2.0879138321995465,0.001340934082069604
2.0922675736961454,0.0013310165645678013
2.0965986394557823,0.0013215969031579713
2.100952380952381,0.0013122856638583685
2.105283446712018,0.0013034968048615282
2.109637188208617,0.0012948583143801765
2.113968253968254,0.0012868101707573121
2.1183219954648527,0.0012789042292176897
2.12265306122449,0.0012716950380208232
2.126984126984127,0.0012646267272533964
2.131337868480726,0.0012582891138317998
2.1356689342403627,0.0012521936358973844
2.1400226757369616,0.0012467080418801393
2.1443537414965985,0.0012416472570492558
2.1487074829931974,0.0012370439465790163
2.1530385487528343,0.0012330642384925413
2.157392290249433,0.0012293642788268817
2.1617233560090705,0.0012264959318659138
2.1660544217687074,0.0012239118663767436
2.1704081632653063,0.0012219677640273711
2.174739229024943,0.0012205102925318923
2.179092970521542,0.0012194789521685198
2.183424036281179,0.0012191343692111898
2.1877551020408164,0.001219055902200593
2.192108843537415,0.0012197405478513907
2.196439909297052,0.0012207179934542092
2.200793650793651,0.0012222599183248453
2.205124716553288,0.0012242364679019744
2.2094784580498867,0.0012265991872600687
2.2138095238095237,0.0012295027982078214
2.2181632653061225,0.001232641987110477
