time,potential
0.09068027210884354,0.0
0.09612244897959184,3.816513907382171e-20
0.09997732426303856,2.0476411794844356e-18
0.10396825396825397,3.5399786963022266e-17
0.10807256235827664,3.269417122882612e-16
0.11224489795918367,2.0021376377648307e-15
0.11648526077097505,9.168490534489345e-15
0.12072562358276644,3.384889777292499e-14
0.12498866213151928,1.058775306714462e-13
0.12927437641723355,2.906502253381754e-13
0.1335827664399093,7.182024258999972e-13
0.13789115646258504,1.6271806181051357e-12
0.14219954648526079,3.4290166244227535e-12
0.14653061224489797,6.796174190969859e-12
0.1508390022675737,1.2780189430021872e-11
0.1551700680272109,2.2963789127289283e-11
0.15950113378684808,3.964903047335871e-11
0.16383219954648526,6.609526450895007e-11
0.16816326530612244,1.0679809581817541e-10
0.17249433106575965,1.6781764309248826e-10
0.1768480725623583,2.571640679450658e-10
0.18117913832199548,3.853130651969669e-10
0.18551020408163266,5.654898001125447e-10
0.1898639455782313,8.143780500187994e-10
0.19419501133786848,1.1529706558655845e-09
0.19852607709750567,1.606267669633658e-09
0.2028798185941043,2.2056148730288444e-09
0.2072108843537415,2.986972738717621e-09
0.21156462585034014,3.995012295388757e-09
0.21591836734693878,5.27918467367151e-09
0.22024943310657596,6.900539210456688e-09
0.2246031746031746,8.925285207683186e-09
0.2289342403628118,1.1431208085648974e-08
0.23328798185941044,1.4507265240877255e-08
0.23764172335600908,1.8247795945059273e-08
0.24197278911564626,2.2764405337483133e-08
0.2463265306122449,2.8176452609424048e-08
0.2506802721088435,3.46097558497032e-08
0.25501133786848074,4.220925053013616e-08
0.25936507936507935,5.112967473129851e-08
0.263718820861678,6.152397554881593e-08
0.26807256235827664,7.356025603976941e-08
0.27240362811791385,8.743689467975785e-08
0.27675736961451247,1.0332314129180599e-07
0.2811111111111111,1.214056929129107e-07
0.28546485260770976,1.4187654225781047e-07
0.28979591836734697,1.6496530029389634e-07
0.2941496598639456,1.9084367652378855e-07
0.2985034013605442,2.19700438468844e-07
0.3028571428571429,2.5172341217082216e-07
0.30718820861678003,2.8709727375706167e-07
0.3115419501133787,3.2604890887422434e-07
0.3158956916099773,3.6869172971998084e-07
0.32024943310657594,4.1517238129885444e-07
0.3246031746031746,4.6562093403060617e-07
0.32895691609977323,5.201485637524185e-07
0.3333106575963719,5.788453346856842e-07
0.33764172335600906,6.417963787193092e-07
0.34199546485260773,7.090843551411948e-07
0.34634920634920635,7.806701942279671e-07
0.35070294784580497,8.565386756416262e-07
0.35505668934240364,9.366445894418763e-07
0.35941043083900226,1.0209117569479685e-06
0.36376417233560093,1.1092323526596101e-06
0.36811791383219955,1.2014665444503583e-06
0.37247165532879817,1.297442465749314e-06
0.37682539682539684,1.396956529511818e-06
0.38117913832199546,1.4997740893949752e-06
0.38553287981859413,1.6056304488156964e-06
0.38988662131519275,1.7142322136614174e-06
0.39424036281179137,1.825258979441834e-06
0.39859410430839004,1.938365338590023e-06
0.40294784580498866,2.053183188445543e-06
0.40730158730158733,2.1693243152439967e-06
0.4116780045351474,2.2866544372683865e-06
0.41603174603174603,2.4045804373608046e-06
0.4203854875283447,2.522647780997313e-06
0.4247392290249433,2.640422439020739e-06
0.42909297052154194,2.7574653190873206e-06
0.4334467120181406,2.8733355627353666e-06
0.4378231292517007,2.988072658682622e-06
0.4421768707482993,3.101024410119486e-06
0.446530612244898,3.211589191471356e-06
0.4508843537414966,3.319347789687398e-06
0.4552607709750567,3.424177187300634e-06
0.45961451247165536,3.526062515099621e-06
0.463968253968254,3.624024700738888e-06
0.4683219954648526,3.71768992947018e-06
0.47269841269841273,3.8070347009170853e-06
0.47705215419501135,3.8920658857158015e-06
0.48140589569160996,3.97177078304376e-06
0.48575963718820864,4.045813995649536e-06
0.49011337868480725,4.113872043654228e-06
0.49448979591836734,4.176257299549564e-06
0.498843537414966,4.232038926237111e-06
0.5031972789115646,4.28074662994464e-06
0.5075510204081632,4.322038621578129e-06
0.5119047619047619,4.355569263003141e-06
0.5162585034013606,4.380985414498266e-06
0.5206122448979592,4.3979223773521e-06
0.5249433106575964,4.406564535837886e-06
0.529297052154195,4.4071784872817955e-06
0.5336281179138322,4.3987669522102e-06
0.5379818594104309,4.384002345427227e-06
0.542312925170068,4.362585664297883e-06
0.5466439909297053,4.3367827301324924e-06
0.5509750566893424,4.309286438934405e-06
0.5552834467120181,4.284650746478269e-06
0.5595918367346939,4.267525084665674e-06
0.5639002267573696,4.265858765849203e-06
0.5682086167800454,4.288260976980146e-06
0.5724943310657596,4.344683193676784e-06
0.576780045351474,4.447596347556383e-06
0.5810657596371882,4.60989590083776e-06
0.5853514739229025,4.843620869692744e-06
0.5896371882086168,5.1594378229023276e-06
0.5939229024943311,5.566114106444354e-06
0.5982086167800453,6.069993433088869e-06
0.6025170068027211,6.676771639168225e-06
0.6068027210884354,7.3874114065179326e-06
0.6111111111111112,8.206031693082628e-06
0.6154421768707483,9.132231948110448e-06
0.619750566893424,1.0169833488070077e-05
0.6240589569160998,1.1316361205297345e-05
0.628390022675737,1.2577548667390128e-05
0.6327210884353741,1.3952281458224214e-05
0.6370521541950114,1.5443075842151316e-05
0.6413832199546485,1.705189046509662e-05
0.6457142857142857,1.8780083488743455e-05
0.6500680272108844,2.0632530725695743e-05
0.6543990929705216,2.261024033705934e-05
0.6587301587301587,2.4710641795464445e-05
0.6630839002267573,2.6945710386380597e-05
0.6674149659863946,2.9304891474916096e-05
0.6717687074829932,3.180314086077588e-05
0.6761224489795918,3.4428772842222533e-05
0.680453514739229,3.71937967811476e-05
0.6848072562358277,4.009347778942445e-05
0.6891609977324263,4.312414322054654e-05
0.6934920634920635,4.6300764497335866e-05
0.6978458049886621,4.961075688451363e-05
0.7021995464852608,5.305241166744785e-05
0.706530612244898,5.663595799042869e-05
0.7108843537414966,6.0355977988436715e-05
0.7152380952380952,6.420512318605055e-05
0.7195918367346938,6.81812355322894e-05
0.7239229024943311,7.229949270434315e-05
0.7282766439909297,7.654248251150686e-05
0.7326303854875283,8.090526864103205e-05
0.736984126984127,8.538404428232635e-05
0.7413151927437642,8.999191547540581e-05
0.7456689342403628,9.471362015934082e-05
0.7500226757369615,9.953937210748168e-05
0.7543764172335601,0.00010446371572962938
0.7587074829931973,0.00010948977197666321
0.763061224489796,0.00011462059857969808
0.7674149659863946,0.00011983341274410326
0.7717687074829932,0.00012512119819130826
0.7761224489795918,0.0001304765595675693
0.7804535147392291,0.00013591439885906334
0.7848072562358277,0.00014141439561854197
0.7891609977324263,0.0001469600533440185
0.7935147392290249,0.0001525426523272573
0.7978684807256236,0.0001581531765926054
0.8021995464852608,0.00016381876813003357
0.8065532879818594,0.00016949613725961737
0.810907029478458,0.00017517524578523105
0.8152607709750567,0.00018084611408581712
0.8195918367346939,0.00018650569599877034
0.8239455782312926,0.00019217202403050564
0.8282993197278912,0.00019780152022772816
0.8326530612244898,0.00020338359867738627
0.8370068027210884,0.00020890759686528532
0.8413378684807257,0.0002143755634048674
0.8456916099773243,0.00021979914325037463
0.8500453514739229,0.00022513459233862557
0.8543990929705215,0.00023037116915317215
0.8587528344671203,0.0002354982074208607
0.8630839002267574,0.0002405189861547249
0.867437641723356,0.00024544739185344063
0.8717913832199546,0.00025023669633518475
0.8761451247165533,0.00025487673777346744
0.880498866213152,0.00025935759214072593
0.8848299319727891,0.0002636752727983413
0.8891836734693878,0.00026786328625501445
0.8935374149659864,0.0002718651279191392
0.8978911564625851,0.00027567198565114795
0.9022448979591837,0.00027927544874216127
0.9065986394557823,0.00028266754193704446
0.9109297052154195,0.00028587595862620803
0.9152834467120181,0.0002888772826026726
0.9196371882086168,0.00029164621072892254
0.9239909297052155,0.0002941765916394436
0.9283446712018141,0.0002964628584866555
0.9326984126984127,0.0002985000575297257
0.93702947845805,0.00030031534345868613
0.9413832199546486,0.0003018904577040253
0.9457369614512472,0.00030320426211018767
0.9500907029478458,0.000304254232859372
0.9544444444444444,0.0003050385734156619
0.9587981859410432,0.00030555623308913964
0.9631519274376418,0.0003058069233015603
0.9674829931972789,0.0003057955171418404
0.9718367346938775,0.00030554801832517704
0.9761904761904762,0.0003050343687113281
0.9805442176870749,0.0003042571578510668
0.9848979591836735,0.00030321978309717497
0.9892517006802721,0.00030192645060546705
0.9936054421768707,0.00030038217320157545
0.9979591836734694,0.00029859276502226497
1.002312925170068,0.00029656483285234837
1.0066666666666666,0.0002943057640932206
1.0110204081632652,0.00029182371131502807
1.015374149659864,0.00028912757336105695
1.0197278911564627,0.00028622697299185115
1.0240816326530613,0.0002831322310754343
1.02843537414966,0.0002798543373501005
1.0327891156462585,0.0002764049178063762
1.0371428571428571,0.00027279619875531706
1.0415192743764172,0.00026905199893161486
1.0458730158730158,0.0002652140545526199
1.0502267573696145,0.0002612631040510139
1.054580498866213,0.0002572133964205083
1.058934240362812,0.0002530795310182077
1.063310657596372,0.00024893875514989805
1.0676643990929706,0.00024476890384786317
1.0720181405895692,0.0002405666703612041
1.0763945578231293,0.00023643914068536932
1.080748299319728,0.00023232911970522002
1.085124716553288,0.00022831528490262735
1.0894784580498866,0.00022438686219435275
1.0938548752834467,0.00022061524938754435
1.0982312925170068,0.0002169665112633846
1.1025850340136054,0.000213543993882175
1.1069614512471655,0.0002103231338607824
1.1113378684807256,0.00020732600806616636
1.1156916099773242,0.00020459390463784663
1.1200680272108843,0.00020217460012549198
1.1244444444444444,0.0002000548433217325
1.1288208616780047,0.0001982551910357702
1.1331972789115647,0.0001967916181344039
1.1375736961451248,0.0001956753178192139
1.141950113378685,0.000194912547258809
1.146326530612245,0.00019450452073554008
1.1506802721088436,0.00019445360740300116
1.1550566893424037,0.0001947634527875073
1.1594331065759638,0.0001954059164464609
1.1638095238095238,0.00019636345779988715
1.168185941043084,0.00019761365144584214
1.172562358276644,0.00019912936819495427
1.1769160997732426,0.0002009233890177957
1.1812925170068027,0.00020294374154205324
1.1856689342403628,0.00020513482358924527
1.1900226757369614,0.00020753334073745207
1.1943990929705215,0.00021004522025357448
1.19875283446712,0.00021269180256063306
1.2031292517006802,0.00021538807298106063
1.207482993197279,0.00021818696852450678
1.2118367346938776,0.00022098737401633723
1.2161904761904763,0.00022377320118143455
1.2205668934240363,0.00022657356430706317
1.224920634920635,0.00022932271687896053
1.2292743764172336,0.00023199710587926283
1.2336281179138322,0.00023457959359733725
1.2379818594104308,0.00023705300400446306
1.2423356009070294,0.00023940019838861784
1.246689342403628,0.00024160415180069717
1.251043083900227,0.0002436480299783657
1.2553968253968255,0.00024551526640872605
1.2597505668934241,0.0002471896391870501
1.2641043083900227,0.00024865534732636485
1.26843537414966,0.0002499277788094469
1.2727891156462585,0.0002509929712708884
1.2771428571428571,0.00025181334927609425
1.2814965986394558,0.000252375124242109
1.285827664399093,0.00025271930857137396
1.2901814058956917,0.000252816977099161
1.2945351473922904,0.0002526258986224944
1.2988662131519275,0.0002522111762846889
1.3032199546485261,0.00025152079931708824
1.3075510204081633,0.0002505487321955872
1.311904761904762,0.0002493442508051046
1.316235827664399,0.00024782645408529306
1.3205895691609977,0.00024609658813021804
1.324920634920635,0.00024404719540566713
1.3292743764172337,0.00024178440517836562
1.3336054421768708,0.00023922005179691499
1.3379591836734694,0.00023642071858957312
1.3422902494331066,0.0002333605035423273
1.3466439909297052,0.0002300250713326674
1.3509750566893424,0.00022649049443295943
1.3553061224489795,0.00022268678550338262
1.3596598639455784,0.0002186384394377591
1.3639909297052155,0.00021440290642509328
1.3683219954648527,0.00020993069441878118
1.3726530612244898,0.00020523571745293176
1.3770068027210884,0.0002003410220799292
1.3813378684807256,0.00019528070028201292
1.3856689342403627,0.00019003178831079336
1.3900000000000001,0.00018460852306386618
1.3943310657596373,0.0001790251277367985
1.3986621315192744,0.00017329576616177472
1.4029931972789116,0.00016743449755474905
1.4073242630385487,0.0001614552318696187
1.411655328798186,0.00015537168596833705
1.4159863945578233,0.00014919734082513396
1.4203174603174604,0.00014294539999022723
1.4246258503401361,0.00013664498349720571
1.4289569160997733,0.0001303239500975802
1.4332879818594104,0.0001239696531459184
1.437596371882086,0.00011764531240606182
1.441904761904762,0.0001113372886917556
1.4462358276643992,0.0001051172689617763
1.4505442176870749,9.899453800482405e-05
1.4548526077097506,9.300928329478019e-05
1.4591383219954648,8.720802577803411e-05
1.4634467120181407,8.166574865473404e-05
1.467732426303855,7.641832876640646e-05
1.4720181405895691,7.155569084552588e-05
1.4763038548752834,6.716225207308351e-05
1.4805668934240364,6.33303745992343e-05
1.4848299319727891,6.016593060935107e-05
1.4890929705215419,5.776992196355835e-05
1.4933560090702949,5.6214378089593326e-05
1.4975963718820862,5.5576639510511676e-05
1.5018367346938777,5.584812992221441e-05
1.5060997732426304,5.701434499051227e-05
1.5103628117913832,5.899173582362669e-05
1.5146258503401362,6.169854306377137e-05
1.518888888888889,6.502977769210247e-05
1.5231519274376417,6.886003594379074e-05
1.527437641723356,7.310999377636595e-05
1.5317233560090704,7.767925600542011e-05
1.536031746031746,8.251592851551962e-05
1.5403174603174603,8.75339688285626e-05
1.544625850340136,9.271503695790013e-05
1.548934240362812,9.800042897472198e-05
1.5532426303854876,0.00010336220741096983
1.5575510204081633,0.00010877291944853141
1.5618820861678004,0.00011423040627549642
1.5661904761904761,0.00011970822604196893
1.5705215419501135,0.00012517266093707002
1.5748299319727892,0.00013066583134465539
1.5791609977324264,0.00013612203096238535
1.583469387755102,0.0001415812692439719
1.5878004535147392,0.00014701600920406799
1.5921315192743764,0.00015241203403381073
1.5964399092970523,0.00015779330562688216
1.6007709750566894,0.00016315451795432124
1.6051020408163266,0.00016847771365794125
1.6094331065759637,0.00017376393886829825
1.6137641723356009,0.00017901399881694338
1.618095238095238,0.000184228388303578
1.6224263038548754,0.00018940722394733002
1.6267573696145126,0.0001945501789070256
1.6310884353741497,0.00019965642074661256
1.6354195011337869,0.0002047245531063129
1.639750566893424,0.00020975256181869715
1.6440816326530612,0.00021473776608021841
1.6484126984126986,0.0002196767752546608
1.6527437641723357,0.00022456545184489153
1.6570748299319729,0.00022939888112413886
1.66140589569161,0.00023417134786801752
1.6657369614512472,0.00023887632057404605
1.6700680272108843,0.0002435064434969124
1.674421768707483,0.0002481044470430113
1.6787528344671203,0.0002526268023066343
1.6830839002267575,0.00025705582807757674
1.6874149659863946,0.00026138116764714116
1.6917687074829932,0.0002656771375100985
1.6960997732426304,0.00026985910235824553
1.7004308390022675,0.0002739112081274382
1.7047845804988662,0.00027792883220631177
1.7091156462585035,0.0002818038799921368
1.7134693877551022,0.00028557331518799513
1.7178004535147393,0.00028924988159326133
1.722154195011338,0.0002927720138405255
1.726485260770975,0.00029622610147222826
1.7308390022675737,0.00029950098938047253
1.7351700680272109,0.0003027063257320324
1.7395238095238095,0.0003057331192998951
1.7438548752834468,0.0003086615328321138
1.7482086167800455,0.00031143843454106425
1.7525396825396826,0.00031406030147330624
1.7568934240362812,0.00031658456942707224
1.7612471655328799,0.00031891959497098955
1.765578231292517,0.00032113731481385975
1.7699319727891156,0.00032321944332766334
1.7742857142857142,0.0003251194131840145
1.7786167800453516,0.00032688552893173946
1.7829705215419502,0.0003285301993117819
1.7873242630385489,0.0003299984889376327
1.7916780045351475,0.000331293391803569
1.7960090702947846,0.0003324724318496452
1.8003628117913832,0.0003335082254083685
1.8047165532879819,0.0003343738376713094
1.8090702947845805,0.0003350711193331175
1.813424036281179,0.0003356015510569048
1.8177551020408165,0.00033602023783152766
1.822108843537415,0.0003362805548360739
1.8264625850340137,0.0003363729484793659
1.8308163265306123,0.0003362974329818317
1.835170068027211,0.00033605358863403643
1.8395238095238096,0.0003356405581036194
1.8438548752834467,0.0003350745195023726
1.8482086167800453,0.00033436531832430993
1.852562358276644,0.00033348029340890463
1.8569160997732426,0.0003324171516828654
1.8612698412698414,0.00033117321400037225
1.86562358276644,0.00032974543689457954
1.8699773242630386,0.00032813043862536275
1.8743310657596373,0.00032632452935171206
1.8786621315192744,0.00032433864833318523
1.883015873015873,0.0003221829262277995
1.8873696145124716,0.00031982441515261706
1.8917233560090703,0.00031725877271549815
1.8960770975056689,0.00031448153742157727
1.9004308390022675,0.00031148817687386176
1.9047845804988663,0.00030827413829494644
1.9091156462585035,0.00030485261873888065
1.9134693877551021,0.00030124022879781065
1.9178231292517007,0.00029739588631098445
1.9221768707482993,0.00029331556605091284
1.926530612244898,0.0002889954732527117
1.9308616780045351,0.0002844472539245689
1.9352154195011337,0.0002797093682751633
1.9395691609977324,0.0002747246160057696
1.9439229024943312,0.0002694906311565431
1.9482539682539683,0.00026403871946387874
1.952607709750567,0.00025838818616259155
1.9569614512471656,0.0002524866732293105
1.9612925170068027,0.0002463700959825543
1.9656462585034014,0.00024006660144443016
1.97,0.00023351524764513408
1.9743310657596371,0.00022681639075820454
1.978684807256236,0.00021988784084812154
1.9830158730158731,0.0002128174925940472
1.9873469387755103,0.0002055376632808888
1.991700680272109,0.00019816076728807337
1.996031746031746,0.00019062165822327892
2.0003628117913834,0.00018295322786344057
2.004716553287982,0.00017521763433942644
2.009047619047619,0.00016741006505319512
2.013378684807256,0.00015955622024899145
2.0177097505668935,0.00015168957536331913
2.0220408163265304,0.00014384333437000068
2.0263492063492063,0.0001360934445092771
2.0306802721088437,0.00012844943540666175
2.034988662131519,0.000120991986063612
2.039297052154195,0.00011377624383717586
2.043605442176871,0.0001068953566885099
2.0479138321995465,0.00010043633175700869
2.052199546485261,9.450608469837636e-05
2.056485260770975,8.922534579630815e-05
2.0607709750566894,8.4730961304621e-05
2.065056689342404,8.113479921813193e-05
2.0693197278911564,7.8568371274126e-05
2.0735827664399094,7.710312677573632e-05
2.0778458049886623,7.678338367170363e-05
2.082108843537415,7.759307979479881e-05
2.0863945578231293,7.946518705570492e-05
2.0906575963718823,8.229991633937263e-05
2.0949433106575963,8.594248180419886e-05
2.0992290249433108,9.025637332123056e-05
2.1035147392290248,9.50949451228308e-05
2.1078231292517007,0.0001003370619846864
2.1121315192743766,0.00010585650602460435
2.116439909297052,0.00011156552365742513
2.120748299319728,0.00011737487701679101
2.125056689342404,0.00012319490981661433
2.129387755102041,0.0001290121590187995
2.133718820861678,0.00013472533818653702
2.138049886621315,0.0001403042163862907
2.142358276643991,0.00014573432892498803
2.146689342403628,0.000150964859911547
2.1510204081632653,0.0001559663753384674
2.1553514739229027,0.00016071435340509437
2.159705215419501,0.00016520956698157083
2.1640362811791385,0.00016941828036699336
2.1683673469387754,0.00017331922913544354
2.172698412698413,0.00017689462580448276
2.177052154195011,0.00018014537149233658
2.1813832199546486,0.0001830865240107752
